##TITLE=No Description
##DATA TYPE=INFRARED SPECTRUM
##XUNITS=1/CM
##YUNITS=%T
399.264912  	73.367774 
401.193728  	79.537958 
403.122544  	84.413381 
405.051360  	85.591007 
406.980176  	91.371721 
408.908992  	98.198195 
410.837808  	97.485367 
412.766624  	97.854409 
414.695440  	98.846719 
416.624256  	92.110292 
418.553072  	78.454295 
420.481888  	87.850584 
422.410704  	101.047311 
424.339520  	104.167879 
426.268336  	110.004096 
428.197152  	109.579646 
430.125968  	100.661540 
432.054784  	98.677668 
433.983600  	104.261156 
435.912416  	103.112954 
437.841232  	106.552431 
439.770048  	110.783460 
441.698864  	106.430538 
443.627680  	104.762621 
445.556496  	105.380380 
447.485312  	105.522094 
449.414128  	105.542997 
451.342944  	105.998192 
453.271760  	108.545401 
455.200576  	108.810631 
457.129392  	112.080621 
459.058208  	114.148574 
460.987024  	109.752091 
462.915840  	104.935556 
464.844656  	101.386289 
466.773472  	104.416944 
468.702288  	106.920650 
470.631104  	106.560949 
472.559920  	107.634373 
474.488736  	108.220855 
476.417552  	110.360633 
478.346368  	113.557408 
480.275184  	113.385381 
482.204000  	113.741607 
484.132816  	113.261033 
486.061632  	113.899412 
487.990448  	110.844863 
489.919264  	106.435673 
491.848080  	103.318478 
493.776896  	104.324066 
495.705712  	104.993525 
497.634528  	104.399711 
499.563344  	110.985461 
501.492160  	113.766768 
503.420976  	109.699440 
505.349792  	108.482540 
507.278608  	106.052128 
509.207424  	106.615542 
511.136240  	106.473641 
513.065056  	106.772416 
514.993872  	109.512404 
516.922688  	108.680570 
518.851504  	105.268640 
520.780320  	100.739233 
522.709136  	98.577127 
524.637952  	100.159176 
526.566768  	97.196571 
528.495584  	93.197326 
530.424400  	90.250015 
532.353216  	87.855599 
534.282032  	84.637840 
536.210848  	81.627961 
538.139664  	81.246251 
540.068480  	82.047660 
541.997296  	80.666740 
543.926112  	78.803797 
545.854928  	77.380629 
547.783744  	76.217979 
549.712560  	75.427926 
551.641376  	73.772702 
553.570192  	72.395513 
555.499008  	72.016685 
557.427824  	72.194842 
559.356640  	72.003701 
561.285456  	70.678978 
563.214272  	69.396232 
565.143088  	68.794936 
567.071904  	68.110985 
569.000720  	66.866127 
570.929536  	66.073088 
572.858352  	66.063359 
574.787168  	65.723173 
576.715984  	65.729467 
578.644800  	65.161800 
580.573616  	64.336806 
582.502432  	63.434817 
584.431248  	62.491648 
586.360064  	61.854572 
588.288880  	61.194249 
590.217696  	60.330878 
592.146512  	59.970991 
594.075328  	59.859142 
596.004144  	58.992787 
597.932960  	58.044329 
599.861776  	57.567783 
601.790592  	57.605854 
603.719408  	57.571427 
605.648224  	57.904843 
607.577040  	58.346602 
609.505856  	58.830233 
611.434672  	59.461462 
613.363488  	60.139313 
615.292304  	60.706600 
617.221120  	60.854723 
619.149936  	61.034861 
621.078752  	60.943180 
623.007568  	60.476117 
624.936384  	59.905561 
626.865200  	59.395432 
628.794016  	58.945478 
630.722832  	58.614111 
632.651648  	58.405833 
634.580464  	58.245942 
636.509280  	58.120872 
638.438096  	57.781580 
640.366912  	57.267008 
642.295728  	56.885195 
644.224544  	56.488247 
646.153360  	56.090625 
648.082176  	55.784198 
650.010992  	55.584216 
651.939808  	55.492214 
653.868624  	55.374827 
655.797440  	55.272233 
657.726256  	55.155116 
659.655072  	55.126559 
661.583888  	55.244418 
663.512704  	55.224825 
665.441520  	54.831015 
667.370336  	53.894804 
669.299152  	54.163891 
671.227968  	54.802810 
673.156784  	55.032905 
675.085600  	55.183226 
677.014416  	55.398024 
678.943232  	55.620511 
680.872048  	55.964215 
682.800864  	56.267884 
684.729680  	56.528144 
686.658496  	56.730713 
688.587312  	56.928067 
690.516128  	57.159466 
692.444944  	57.321384 
694.373760  	57.374848 
696.302576  	57.382857 
698.231392  	57.340049 
700.160208  	57.285274 
702.089024  	57.186504 
704.017840  	57.129223 
705.946656  	57.202197 
707.875472  	57.430344 
709.804288  	57.732978 
711.733104  	58.104069 
713.661920  	58.505879 
715.590736  	59.020866 
717.519552  	59.540807 
719.448368  	60.066500 
721.377184  	60.880436 
723.306000  	61.698484 
725.234816  	62.332560 
727.163632  	62.881114 
729.092448  	63.346192 
731.021264  	63.784113 
732.950080  	64.123774 
734.878896  	64.407455 
736.807712  	64.651909 
738.736528  	64.777955 
740.665344  	64.859469 
742.594160  	64.965437 
744.522976  	64.911766 
746.451792  	64.723706 
748.380608  	64.447174 
750.309424  	64.105175 
752.238240  	63.719955 
754.167056  	63.313910 
756.095872  	62.894215 
758.024688  	62.589256 
759.953504  	62.407567 
761.882320  	62.370238 
763.811136  	62.591069 
765.739952  	63.026972 
767.668768  	63.597160 
769.597584  	64.393322 
771.526400  	65.380748 
773.455216  	66.508096 
775.384032  	67.588140 
777.312848  	68.519059 
779.241664  	69.235431 
781.170480  	69.805640 
783.099296  	70.269473 
785.028112  	70.662396 
786.956928  	70.995254 
788.885744  	71.323832 
790.814560  	71.649923 
792.743376  	71.984040 
794.672192  	72.283767 
796.601008  	72.614218 
798.529824  	72.962357 
800.458640  	73.291369 
802.387456  	73.612495 
804.316272  	73.995906 
806.245088  	74.236263 
808.173904  	74.384229 
810.102720  	74.503924 
812.031536  	74.592284 
813.960352  	74.665269 
815.889168  	74.724559 
817.817984  	74.726535 
819.746800  	74.708765 
821.675616  	74.725241 
823.604432  	74.789376 
825.533248  	74.772845 
827.462064  	74.680931 
829.390880  	74.418569 
831.319696  	73.975321 
833.248512  	73.334334 
835.177328  	72.610957 
837.106144  	71.895248 
839.034960  	71.189963 
840.963776  	70.471964 
842.892592  	69.800654 
844.821408  	69.236759 
846.750224  	68.754411 
848.679040  	68.308261 
850.607856  	67.928467 
852.536672  	67.589423 
854.465488  	67.248057 
856.394304  	66.885582 
858.323120  	66.505062 
860.251936  	66.283406 
862.180752  	66.622157 
864.109568  	67.671848 
866.038384  	69.303915 
867.967200  	71.146205 
869.896016  	73.016042 
871.824832  	74.727646 
873.753648  	76.211065 
875.682464  	77.435560 
877.611280  	78.389708 
879.540096  	79.040904 
881.468912  	79.417440 
883.397728  	79.504330 
885.326544  	79.408209 
887.255360  	79.108429 
889.184176  	78.660678 
891.112992  	78.122560 
893.041808  	77.550042 
894.970624  	76.921901 
896.899440  	76.254284 
898.828256  	75.560472 
900.757072  	74.856052 
902.685888  	74.142249 
904.614704  	73.322359 
906.543520  	72.381915 
908.472336  	71.406662 
910.401152  	70.423280 
912.329968  	69.371927 
914.258784  	68.233526 
916.187600  	67.073717 
918.116416  	65.856427 
920.045232  	64.742136 
921.974048  	63.961629 
923.902864  	63.576901 
925.831680  	63.521166 
927.760496  	63.735847 
929.689312  	64.170806 
931.618128  	64.762923 
933.546944  	65.473203 
935.475760  	66.346722 
937.404576  	67.294794 
939.333392  	68.277617 
941.262208  	69.238629 
943.191024  	70.266643 
945.119840  	71.262457 
947.048656  	71.987445 
948.977472  	72.338719 
950.906288  	72.321677 
952.835104  	71.917205 
954.763920  	71.158154 
956.692736  	70.117735 
958.621552  	68.836589 
960.550368  	67.262325 
962.479184  	65.480633 
964.408000  	63.524423 
966.336816  	61.408291 
968.265632  	59.158594 
970.194448  	56.813907 
972.123264  	54.380427 
974.052080  	51.784813 
975.980896  	48.928015 
977.909712  	45.806585 
979.838528  	42.395623 
981.767344  	38.702649 
983.696160  	34.895017 
985.624976  	31.257779 
987.553792  	28.008563 
989.482608  	25.330514 
991.411424  	23.278688 
993.340240  	21.841629 
995.269056  	20.971379 
997.197872  	20.536993 
999.126688  	20.419748 
1001.055504  	20.570187 
1002.984320  	20.942992 
1004.913136  	21.444615 
1006.841952  	21.966022 
1008.770768  	22.429271 
1010.699584  	22.795367 
1012.628400  	23.181485 
1014.557216  	23.678107 
1016.486032  	24.350776 
1018.414848  	25.235517 
1020.343664  	26.337184 
1022.272480  	27.612842 
1024.201296  	29.010574 
1026.130112  	30.474298 
1028.058928  	31.952594 
1029.987744  	33.354256 
1031.916560  	34.568628 
1033.845376  	35.512637 
1035.774192  	36.231382 
1037.703008  	36.853754 
1039.631824  	37.513854 
1041.560640  	38.326152 
1043.489456  	39.338285 
1045.418272  	40.571577 
1047.347088  	42.058419 
1049.275904  	43.794592 
1051.204720  	45.827944 
1053.133536  	48.106524 
1055.062352  	50.500005 
1056.991168  	52.888217 
1058.919984  	55.192188 
1060.848800  	57.328809 
1062.777616  	59.097139 
1064.706432  	60.189501 
1066.635248  	60.294079 
1068.564064  	59.133648 
1070.492880  	56.674222 
1072.421696  	53.537954 
1074.350512  	50.982944 
1076.279328  	49.962689 
1078.208144  	50.553268 
1080.136960  	52.221273 
1082.065776  	54.358824 
1083.994592  	56.533851 
1085.923408  	58.582064 
1087.852224  	60.358396 
1089.781040  	61.714492 
1091.709856  	62.574199 
1093.638672  	62.955911 
1095.567488  	62.984475 
1097.496304  	62.749533 
1099.425120  	62.385163 
1101.353936  	62.095837 
1103.282752  	62.019094 
1105.211568  	62.242053 
1107.140384  	62.768354 
1109.069200  	63.481726 
1110.998016  	64.275390 
1112.926832  	65.063334 
1114.855648  	65.799301 
1116.784464  	66.489969 
1118.713280  	67.112755 
1120.642096  	67.709108 
1122.570912  	68.352764 
1124.499728  	69.145698 
1126.428544  	70.092076 
1128.357360  	71.114462 
1130.286176  	72.020978 
1132.214992  	72.544087 
1134.143808  	72.486676 
1136.072624  	71.812868 
1138.001440  	70.549782 
1139.930256  	68.824646 
1141.859072  	66.868232 
1143.787888  	64.930975 
1145.716704  	63.275041 
1147.645520  	62.131769 
1149.574336  	61.649424 
1151.503152  	61.929172 
1153.431968  	62.935195 
1155.360784  	64.622815 
1157.289600  	66.854286 
1159.218416  	69.410643 
1161.147232  	72.117692 
1163.076048  	74.840662 
1165.004864  	77.475220 
1166.933680  	79.887756 
1168.862496  	82.011838 
1170.791312  	83.828955 
1172.720128  	85.286681 
1174.648944  	86.419780 
1176.577760  	87.275027 
1178.506576  	87.891037 
1180.435392  	88.297589 
1182.364208  	88.491990 
1184.293024  	88.478103 
1186.221840  	88.316222 
1188.150656  	88.092969 
1190.079472  	87.783588 
1192.008288  	87.326097 
1193.937104  	86.838520 
1195.865920  	86.315469 
1197.794736  	85.795683 
1199.723552  	85.389064 
1201.652368  	85.124949 
1203.581184  	84.984438 
1205.510000  	84.959862 
1207.438816  	85.025625 
1209.367632  	85.157979 
1211.296448  	85.307522 
1213.225264  	85.465518 
1215.154080  	85.598652 
1217.082896  	85.664850 
1219.011712  	85.660003 
1220.940528  	85.558739 
1222.869344  	85.347654 
1224.798160  	85.057906 
1226.726976  	84.771141 
1228.655792  	84.473841 
1230.584608  	84.177333 
1232.513424  	83.927295 
1234.442240  	83.717337 
1236.371056  	83.559890 
1238.299872  	83.448111 
1240.228688  	83.391063 
1242.157504  	83.385213 
1244.086320  	83.454645 
1246.015136  	83.606577 
1247.943952  	83.785296 
1249.872768  	83.962635 
1251.801584  	84.096092 
1253.730400  	84.180256 
1255.659216  	84.238654 
1257.588032  	84.228481 
1259.516848  	84.172848 
1261.445664  	84.214923 
1263.374480  	84.291107 
1265.303296  	84.328761 
1267.232112  	84.367420 
1269.160928  	84.363767 
1271.089744  	84.354428 
1273.018560  	84.373747 
1274.947376  	84.309411 
1276.876192  	84.115524 
1278.805008  	83.874797 
1280.733824  	83.643070 
1282.662640  	83.448263 
1284.591456  	83.221652 
1286.520272  	82.921807 
1288.449088  	82.668052 
1290.377904  	82.496031 
1292.306720  	82.268462 
1294.235536  	81.987524 
1296.164352  	81.697534 
1298.093168  	81.540464 
1300.021984  	81.458458 
1301.950800  	81.410275 
1303.879616  	81.385051 
1305.808432  	81.335897 
1307.737248  	81.213259 
1309.666064  	81.043338 
1311.594880  	80.688590 
1313.523696  	80.356093 
1315.452512  	80.082860 
1317.381328  	79.658070 
1319.310144  	79.354946 
1321.238960  	79.216960 
1323.167776  	78.963865 
1325.096592  	78.631841 
1327.025408  	78.280512 
1328.954224  	77.969203 
1330.883040  	77.758858 
1332.811856  	77.616469 
1334.740672  	77.365919 
1336.669488  	76.891226 
1338.598304  	76.431108 
1340.527120  	76.882311 
1342.455936  	77.608613 
1344.384752  	77.905879 
1346.313568  	78.024126 
1348.242384  	78.067452 
1350.171200  	78.163485 
1352.100016  	78.209308 
1354.028832  	78.134007 
1355.957648  	78.177786 
1357.886464  	78.198346 
1359.815280  	77.918398 
1361.744096  	77.543630 
1363.672912  	77.986457 
1365.601728  	78.470835 
1367.530544  	78.495680 
1369.459360  	78.680002 
1371.388176  	78.774329 
1373.316992  	78.641479 
1375.245808  	79.194277 
1377.174624  	79.763483 
1379.103440  	80.127115 
1381.032256  	80.587619 
1382.961072  	80.966717 
1384.889888  	80.977749 
1386.818704  	81.050499 
1388.747520  	81.783074 
1390.676336  	82.082184 
1392.605152  	81.712109 
1394.533968  	81.085692 
1396.462784  	80.897292 
1398.391600  	80.871173 
1400.320416  	81.228286 
1402.249232  	81.187177 
1404.178048  	80.780428 
1406.106864  	80.852205 
1408.035680  	80.924645 
1409.964496  	80.690371 
1411.893312  	80.636438 
1413.822128  	80.575749 
1415.750944  	80.001663 
1417.679760  	79.426609 
1419.608576  	80.090820 
1421.537392  	80.580542 
1423.466208  	80.596260 
1425.395024  	81.077957 
1427.323840  	81.169584 
1429.252656  	81.063075 
1431.181472  	81.324947 
1433.110288  	81.411317 
1435.039104  	81.128446 
1436.967920  	81.598541 
1438.896736  	82.401423 
1440.825552  	82.699553 
1442.754368  	82.845458 
1444.683184  	82.759563 
1446.612000  	82.414228 
1448.540816  	82.381558 
1450.469632  	82.371646 
1452.398448  	81.925761 
1454.327264  	81.036920 
1456.256080  	79.804882 
1458.184896  	80.753573 
1460.113712  	82.196252 
1462.042528  	82.793101 
1463.971344  	83.053106 
1465.900160  	84.188427 
1467.828976  	85.133846 
1469.757792  	85.429262 
1471.686608  	85.314106 
1473.615424  	86.586003 
1475.544240  	88.056111 
1477.473056  	89.451767 
1479.401872  	90.145113 
1481.330688  	90.584968 
1483.259504  	91.171482 
1485.188320  	91.152104 
1487.117136  	90.552989 
1489.045952  	90.209746 
1490.974768  	91.504955 
1492.903584  	92.506574 
1494.832400  	92.276149 
1496.761216  	91.941092 
1498.690032  	92.341970 
1500.618848  	92.785588 
1502.547664  	92.803355 
1504.476480  	91.907176 
1506.405296  	89.400328 
1508.334112  	90.216477 
1510.262928  	91.801407 
1512.191744  	92.574657 
1514.120560  	92.372414 
1516.049376  	91.556413 
1517.978192  	91.668952 
1519.907008  	91.343626 
1521.835824  	91.262476 
1523.764640  	91.997361 
1525.693456  	92.194967 
1527.622272  	92.872685 
1529.551088  	93.446979 
1531.479904  	93.061225 
1533.408720  	92.736974 
1535.337536  	93.456507 
1537.266352  	93.125742 
1539.195168  	91.523868 
1541.123984  	91.321569 
1543.052800  	91.987746 
1544.981616  	92.971921 
1546.910432  	93.944223 
1548.839248  	93.644682 
1550.768064  	93.525036 
1552.696880  	93.543708 
1554.625696  	93.058304 
1556.554512  	92.352440 
1558.483328  	91.273074 
1560.412144  	93.406124 
1562.340960  	94.290714 
1564.269776  	94.449438 
1566.198592  	94.514337 
1568.127408  	94.147633 
1570.056224  	94.299069 
1571.985040  	94.929548 
1573.913856  	94.646940 
1575.842672  	94.098136 
1577.771488  	94.726951 
1579.700304  	95.224641 
1581.629120  	95.228534 
1583.557936  	95.152144 
1585.486752  	95.033803 
1587.415568  	94.857242 
1589.344384  	94.652973 
1591.273200  	94.518740 
1593.202016  	94.300722 
1595.130832  	94.163556 
1597.059648  	94.187308 
1598.988464  	94.098317 
1600.917280  	93.782727 
1602.846096  	93.566422 
1604.774912  	93.451272 
1606.703728  	93.122427 
1608.632544  	92.814149 
1610.561360  	92.803089 
1612.490176  	92.614125 
1614.418992  	91.914607 
1616.347808  	91.182791 
1618.276624  	91.401132 
1620.205440  	91.227646 
1622.134256  	90.554086 
1624.063072  	90.440154 
1625.991888  	90.470748 
1627.920704  	90.284393 
1629.849520  	90.386427 
1631.778336  	90.057191 
1633.707152  	89.136265 
1635.635968  	88.255224 
1637.564784  	88.873888 
1639.493600  	89.307316 
1641.422416  	89.365407 
1643.351232  	88.930329 
1645.280048  	87.864286 
1647.208864  	87.474569 
1649.137680  	88.234772 
1651.066496  	87.841680 
1652.995312  	87.305751 
1654.924128  	88.813414 
1656.852944  	89.700256 
1658.781760  	90.019716 
1660.710576  	89.867146 
1662.639392  	90.026096 
1664.568208  	90.703861 
1666.497024  	90.560030 
1668.425840  	90.005187 
1670.354656  	90.393053 
1672.283472  	91.105033 
1674.212288  	91.313737 
1676.141104  	91.924965 
1678.069920  	92.128396 
1679.998736  	91.761440 
1681.927552  	91.286007 
1683.856368  	91.126058 
1685.785184  	92.489226 
1687.714000  	92.971161 
1689.642816  	93.538205 
1691.571632  	94.111296 
1693.500448  	93.886756 
1695.429264  	93.020189 
1697.358080  	92.715849 
1699.286896  	92.827746 
1701.215712  	93.736032 
1703.144528  	94.029975 
1705.073344  	93.987177 
1707.002160  	94.622529 
1708.930976  	95.100653 
1710.859792  	95.101996 
1712.788608  	94.603984 
1714.717424  	93.604225 
1716.646240  	93.098072 
1718.575056  	94.212866 
1720.503872  	95.126517 
1722.432688  	95.252551 
1724.361504  	95.442848 
1726.290320  	95.577130 
1728.219136  	95.166217 
1730.147952  	94.491900 
1732.076768  	93.893135 
1734.005584  	93.690641 
1735.934400  	94.587855 
1737.863216  	94.576336 
1739.792032  	94.361559 
1741.720848  	94.252955 
1743.649664  	94.027763 
1745.578480  	93.972073 
1747.507296  	93.684157 
1749.436112  	93.854072 
1751.364928  	94.917483 
1753.293744  	95.945997 
1755.222560  	96.146505 
1757.151376  	96.267296 
1759.080192  	96.569212 
1761.009008  	96.582510 
1762.937824  	96.999587 
1764.866640  	97.338168 
1766.795456  	97.051292 
1768.724272  	96.709607 
1770.653088  	96.289038 
1772.581904  	96.312646 
1774.510720  	97.033894 
1776.439536  	97.420052 
1778.368352  	97.383627 
1780.297168  	97.257514 
1782.225984  	97.509465 
1784.154800  	97.561599 
1786.083616  	97.740518 
1788.012432  	97.708111 
1789.941248  	97.065632 
1791.870064  	96.659067 
1793.798880  	97.133475 
1795.727696  	97.357266 
1797.656512  	97.481618 
1799.585328  	97.350226 
1801.514144  	97.416178 
1803.442960  	97.877540 
1805.371776  	98.078671 
1807.300592  	97.934616 
1809.229408  	97.754939 
1811.158224  	97.770891 
1813.087040  	98.154796 
1815.015856  	98.353994 
1816.944672  	98.289691 
1818.873488  	98.345605 
1820.802304  	98.295466 
1822.731120  	98.005419 
1824.659936  	97.734788 
1826.588752  	97.762022 
1828.517568  	97.488626 
1830.446384  	97.628731 
1832.375200  	98.207305 
1834.304016  	98.282581 
1836.232832  	98.174676 
1838.161648  	98.213881 
1840.090464  	98.171934 
1842.019280  	97.686748 
1843.948096  	97.343758 
1845.876912  	97.551346 
1847.805728  	97.822912 
1849.734544  	98.140746 
1851.663360  	98.334281 
1853.592176  	98.375867 
1855.520992  	98.424400 
1857.449808  	98.344735 
1859.378624  	98.291589 
1861.307440  	98.311739 
1863.236256  	98.311109 
1865.165072  	97.970346 
1867.093888  	97.380033 
1869.022704  	97.389670 
1870.951520  	98.060274 
1872.880336  	98.422991 
1874.809152  	98.516095 
1876.737968  	98.497268 
1878.666784  	98.464036 
1880.595600  	98.483871 
1882.524416  	98.509862 
1884.453232  	98.455305 
1886.382048  	98.418618 
1888.310864  	98.153764 
1890.239680  	98.193312 
1892.168496  	98.436830 
1894.097312  	98.366554 
1896.026128  	98.433502 
1897.954944  	98.593003 
1899.883760  	98.593878 
1901.812576  	98.604858 
1903.741392  	98.649726 
1905.670208  	98.575213 
1907.599024  	98.317928 
1909.527840  	98.266209 
1911.456656  	98.518696 
1913.385472  	98.617322 
1915.314288  	98.485267 
1917.243104  	98.272262 
1919.171920  	98.334308 
1921.100736  	98.257416 
1923.029552  	98.157066 
1924.958368  	98.586953 
1926.887184  	98.798371 
1928.816000  	98.842729 
1930.744816  	98.812024 
1932.673632  	98.792883 
1934.602448  	98.836171 
1936.531264  	98.888717 
1938.460080  	98.820079 
1940.388896  	98.583366 
1942.317712  	98.408713 
1944.246528  	98.689618 
1946.175344  	98.790228 
1948.104160  	98.863288 
1950.032976  	98.922823 
1951.961792  	99.041692 
1953.890608  	99.060467 
1955.819424  	99.150690 
1957.748240  	99.204317 
1959.677056  	99.190321 
1961.605872  	99.216770 
1963.534688  	99.281466 
1965.463504  	99.195790 
1967.392320  	99.252425 
1969.321136  	99.498822 
1971.249952  	99.607236 
1973.178768  	99.467000 
1975.107584  	99.482362 
1977.036400  	99.418329 
1978.965216  	99.325977 
1980.894032  	99.318585 
1982.822848  	99.322190 
1984.751664  	99.248227 
1986.680480  	99.191076 
1988.609296  	99.117488 
1990.538112  	99.062470 
1992.466928  	99.063439 
1994.395744  	99.246992 
1996.324560  	99.270223 
1998.253376  	99.309148 
2000.182192  	99.370968 
2002.111008  	99.412192 
2004.039824  	99.472872 
2005.968640  	99.556773 
2007.897456  	99.543706 
2009.826272  	99.507547 
2011.755088  	99.487682 
2013.683904  	99.489049 
2015.612720  	99.338826 
2017.541536  	99.256929 
2019.470352  	99.273526 
2021.399168  	99.350392 
2023.327984  	99.372486 
2025.256800  	99.338124 
2027.185616  	99.345721 
2029.114432  	99.409962 
2031.043248  	99.381622 
2032.972064  	99.317408 
2034.900880  	99.186676 
2036.829696  	99.182857 
2038.758512  	99.101591 
2040.687328  	98.914635 
2042.616144  	98.921556 
2044.544960  	98.967748 
2046.473776  	98.924217 
2048.402592  	98.913334 
2050.331408  	98.820186 
2052.260224  	98.760589 
2054.189040  	98.717825 
2056.117856  	98.725129 
2058.046672  	98.734885 
2059.975488  	98.659747 
2061.904304  	98.649429 
2063.833120  	98.584093 
2065.761936  	98.522848 
2067.690752  	98.600935 
2069.619568  	98.562839 
2071.548384  	98.510477 
2073.477200  	98.482812 
2075.406016  	98.490610 
2077.334832  	98.476830 
2079.263648  	98.484970 
2081.192464  	98.502236 
2083.121280  	98.542756 
2085.050096  	98.526040 
2086.978912  	98.494982 
2088.907728  	98.456332 
2090.836544  	98.482405 
2092.765360  	98.517323 
2094.694176  	98.564656 
2096.622992  	98.570889 
2098.551808  	98.598565 
2100.480624  	98.548831 
2102.409440  	98.487501 
2104.338256  	98.476542 
2106.267072  	98.401971 
2108.195888  	98.365068 
2110.124704  	98.424216 
2112.053520  	98.455457 
2113.982336  	98.432251 
2115.911152  	98.411962 
2117.839968  	98.395927 
2119.768784  	98.412260 
2121.697600  	98.473753 
2123.626416  	98.495817 
2125.555232  	98.493320 
2127.484048  	98.480961 
2129.412864  	98.494787 
2131.341680  	98.488725 
2133.270496  	98.579381 
2135.199312  	98.648901 
2137.128128  	98.614003 
2139.056944  	98.577812 
2140.985760  	98.626272 
2142.914576  	98.690677 
2144.843392  	98.709292 
2146.772208  	98.777806 
2148.701024  	98.876140 
2150.629840  	98.993431 
2152.558656  	98.959862 
2154.487472  	98.955987 
2156.416288  	99.090802 
2158.345104  	98.977907 
2160.273920  	98.928014 
2162.202736  	98.903392 
2164.131552  	98.855102 
2166.060368  	98.764458 
2167.989184  	98.750416 
2169.918000  	98.721494 
2171.846816  	98.699020 
2173.775632  	98.735164 
2175.704448  	98.780626 
2177.633264  	98.806873 
2179.562080  	98.744608 
2181.490896  	98.695256 
2183.419712  	98.700771 
2185.348528  	98.660449 
2187.277344  	98.707533 
2189.206160  	98.777902 
2191.134976  	98.669700 
2193.063792  	98.534377 
2194.992608  	98.670816 
2196.921424  	98.747916 
2198.850240  	98.705619 
2200.779056  	98.686178 
2202.707872  	98.762910 
2204.636688  	98.773775 
2206.565504  	98.829832 
2208.494320  	98.842175 
2210.423136  	98.777808 
2212.351952  	98.760307 
2214.280768  	98.738729 
2216.209584  	98.735258 
2218.138400  	98.769269 
2220.067216  	98.773260 
2221.996032  	98.770172 
2223.924848  	98.738470 
2225.853664  	98.760325 
2227.782480  	98.711080 
2229.711296  	98.708082 
2231.640112  	98.676166 
2233.568928  	98.640647 
2235.497744  	98.635510 
2237.426560  	98.633899 
2239.355376  	98.601025 
2241.284192  	98.587367 
2243.213008  	98.562124 
2245.141824  	98.612413 
2247.070640  	98.677056 
2248.999456  	98.673948 
2250.928272  	98.627492 
2252.857088  	98.601275 
2254.785904  	98.550342 
2256.714720  	98.525880 
2258.643536  	98.494929 
2260.572352  	98.440809 
2262.501168  	98.383335 
2264.429984  	98.388162 
2266.358800  	98.414880 
2268.287616  	98.460199 
2270.216432  	98.451043 
2272.145248  	98.387650 
2274.074064  	98.385539 
2276.002880  	98.413052 
2277.931696  	98.426016 
2279.860512  	98.386316 
2281.789328  	98.364849 
2283.718144  	98.334568 
2285.646960  	98.242631 
2287.575776  	98.133643 
2289.504592  	98.015570 
2291.433408  	97.865206 
2293.362224  	97.699349 
2295.291040  	97.549386 
2297.219856  	97.412669 
2299.148672  	97.247921 
2301.077488  	97.071308 
2303.006304  	96.863451 
2304.935120  	96.527348 
2306.863936  	96.186649 
2308.792752  	95.944603 
2310.721568  	95.694176 
2312.650384  	95.505535 
2314.579200  	95.416184 
2316.508016  	95.217077 
2318.436832  	94.808045 
2320.365648  	94.335150 
2322.294464  	94.002784 
2324.223280  	93.870520 
2326.152096  	93.764874 
2328.080912  	93.544454 
2330.009728  	93.459777 
2331.938544  	93.478538 
2333.867360  	93.470907 
2335.796176  	93.342959 
2337.724992  	93.216206 
2339.653808  	93.132008 
2341.582624  	93.038882 
2343.511440  	93.113258 
2345.440256  	93.590474 
2347.369072  	94.131734 
2349.297888  	94.015270 
2351.226704  	93.292358 
2353.155520  	92.560229 
2355.084336  	91.881425 
2357.013152  	91.298945 
2358.941968  	91.075064 
2360.870784  	91.092911 
2362.799600  	91.257686 
2364.728416  	91.690941 
2366.657232  	92.198969 
2368.586048  	92.801286 
2370.514864  	93.433465 
2372.443680  	94.067002 
2374.372496  	94.745006 
2376.301312  	95.395502 
2378.230128  	95.949569 
2380.158944  	96.481355 
2382.087760  	97.073388 
2384.016576  	97.582366 
2385.945392  	97.882572 
2387.874208  	98.053379 
2389.803024  	98.159080 
2391.731840  	98.210606 
2393.660656  	98.205202 
2395.589472  	98.206320 
2397.518288  	98.236453 
2399.447104  	98.243219 
2401.375920  	98.233987 
2403.304736  	98.244795 
2405.233552  	98.206389 
2407.162368  	98.162397 
2409.091184  	98.149794 
2411.020000  	98.167094 
2412.948816  	98.154540 
2414.877632  	98.119535 
2416.806448  	98.079149 
2418.735264  	98.063608 
2420.664080  	98.031641 
2422.592896  	97.980708 
2424.521712  	97.932372 
2426.450528  	97.901612 
2428.379344  	97.918702 
2430.308160  	97.903130 
2432.236976  	97.887360 
2434.165792  	97.898477 
2436.094608  	97.863632 
2438.023424  	97.841296 
2439.952240  	97.794855 
2441.881056  	97.747672 
2443.809872  	97.738003 
2445.738688  	97.754561 
2447.667504  	97.706749 
2449.596320  	97.674495 
2451.525136  	97.641368 
2453.453952  	97.614329 
2455.382768  	97.601230 
2457.311584  	97.615980 
2459.240400  	97.629100 
2461.169216  	97.610245 
2463.098032  	97.553200 
2465.026848  	97.519351 
2466.955664  	97.520497 
2468.884480  	97.542274 
2470.813296  	97.545518 
2472.742112  	97.516850 
2474.670928  	97.481852 
2476.599744  	97.478899 
2478.528560  	97.433089 
2480.457376  	97.400040 
2482.386192  	97.400040 
2484.315008  	97.392038 
2486.243824  	97.357994 
2488.172640  	97.340088 
2490.101456  	97.365854 
2492.030272  	97.363255 
2493.959088  	97.349645 
2495.887904  	97.358360 
2497.816720  	97.333852 
2499.745536  	97.292793 
2501.674352  	97.289166 
2503.603168  	97.304430 
2505.531984  	97.261992 
2507.460800  	97.209396 
2509.389616  	97.203150 
2511.318432  	97.209466 
2513.247248  	97.200252 
2515.176064  	97.179969 
2517.104880  	97.132322 
2519.033696  	97.111050 
2520.962512  	97.081800 
2522.891328  	97.066317 
2524.820144  	97.061681 
2526.748960  	97.068477 
2528.677776  	97.094007 
2530.606592  	97.085807 
2532.535408  	97.063150 
2534.464224  	97.047951 
2536.393040  	96.994221 
2538.321856  	96.931754 
2540.250672  	96.902898 
2542.179488  	96.908344 
2544.108304  	96.938219 
2546.037120  	96.940797 
2547.965936  	96.884900 
2549.894752  	96.838404 
2551.823568  	96.845867 
2553.752384  	96.839062 
2555.681200  	96.814557 
2557.610016  	96.812524 
2559.538832  	96.814975 
2561.467648  	96.811109 
2563.396464  	96.788013 
2565.325280  	96.747992 
2567.254096  	96.725779 
2569.182912  	96.712849 
2571.111728  	96.679876 
2573.040544  	96.661781 
2574.969360  	96.624071 
2576.898176  	96.579602 
2578.826992  	96.551176 
2580.755808  	96.548595 
2582.684624  	96.544522 
2584.613440  	96.504020 
2586.542256  	96.466349 
2588.471072  	96.477617 
2590.399888  	96.477765 
2592.328704  	96.439674 
2594.257520  	96.390124 
2596.186336  	96.362266 
2598.115152  	96.315875 
2600.043968  	96.257829 
2601.972784  	96.246926 
2603.901600  	96.248780 
2605.830416  	96.212671 
2607.759232  	96.189006 
2609.688048  	96.178213 
2611.616864  	96.153292 
2613.545680  	96.122238 
2615.474496  	96.133750 
2617.403312  	96.104950 
2619.332128  	96.057434 
2621.260944  	96.001958 
2623.189760  	95.959793 
2625.118576  	95.913677 
2627.047392  	95.848480 
2628.976208  	95.808051 
2630.905024  	95.801582 
2632.833840  	95.767855 
2634.762656  	95.690582 
2636.691472  	95.629960 
2638.620288  	95.597748 
2640.549104  	95.575950 
2642.477920  	95.555289 
2644.406736  	95.525276 
2646.335552  	95.482982 
2648.264368  	95.437391 
2650.193184  	95.378765 
2652.122000  	95.344575 
2654.050816  	95.320959 
2655.979632  	95.275382 
2657.908448  	95.246879 
2659.837264  	95.214438 
2661.766080  	95.168876 
2663.694896  	95.138460 
2665.623712  	95.101557 
2667.552528  	95.079800 
2669.481344  	95.075484 
2671.410160  	95.032481 
2673.338976  	94.990572 
2675.267792  	94.951837 
2677.196608  	94.921224 
2679.125424  	94.898909 
2681.054240  	94.878924 
2682.983056  	94.863497 
2684.911872  	94.834036 
2686.840688  	94.790129 
2688.769504  	94.744642 
2690.698320  	94.703149 
2692.627136  	94.686123 
2694.555952  	94.659256 
2696.484768  	94.609611 
2698.413584  	94.562722 
2700.342400  	94.547999 
2702.271216  	94.524762 
2704.200032  	94.468406 
2706.128848  	94.419487 
2708.057664  	94.386092 
2709.986480  	94.332756 
2711.915296  	94.274485 
2713.844112  	94.214125 
2715.772928  	94.162462 
2717.701744  	94.107422 
2719.630560  	94.068387 
2721.559376  	94.009153 
2723.488192  	93.967203 
2725.417008  	93.924686 
2727.345824  	93.888738 
2729.274640  	93.869711 
2731.203456  	93.840414 
2733.132272  	93.784114 
2735.061088  	93.736505 
2736.989904  	93.697880 
2738.918720  	93.672886 
2740.847536  	93.643005 
2742.776352  	93.586557 
2744.705168  	93.551532 
2746.633984  	93.508553 
2748.562800  	93.448158 
2750.491616  	93.420701 
2752.420432  	93.413280 
2754.349248  	93.402615 
2756.278064  	93.377818 
2758.206880  	93.347795 
2760.135696  	93.302802 
2762.064512  	93.262938 
2763.993328  	93.225043 
2765.922144  	93.186462 
2767.850960  	93.150900 
2769.779776  	93.127601 
2771.708592  	93.071217 
2773.637408  	93.010727 
2775.566224  	92.980642 
2777.495040  	92.957608 
2779.423856  	92.900869 
2781.352672  	92.837593 
2783.281488  	92.771650 
2785.210304  	92.681141 
2787.139120  	92.611968 
2789.067936  	92.538576 
2790.996752  	92.448031 
2792.925568  	92.387702 
2794.854384  	92.307255 
2796.783200  	92.204846 
2798.712016  	92.117673 
2800.640832  	92.032337 
2802.569648  	91.948152 
2804.498464  	91.863933 
2806.427280  	91.764801 
2808.356096  	91.649980 
2810.284912  	91.519234 
2812.213728  	91.395728 
2814.142544  	91.261532 
2816.071360  	91.142867 
2818.000176  	91.007303 
2819.928992  	90.842127 
2821.857808  	90.682580 
2823.786624  	90.532448 
2825.715440  	90.395621 
2827.644256  	90.245250 
2829.573072  	90.038207 
2831.501888  	89.812645 
2833.430704  	89.597311 
2835.359520  	89.362356 
2837.288336  	89.097541 
2839.217152  	88.794535 
2841.145968  	88.408937 
2843.074784  	87.930055 
2845.003600  	87.329492 
2846.932416  	86.642764 
2848.861232  	86.025298 
2850.790048  	85.643439 
2852.718864  	85.512840 
2854.647680  	85.501676 
2856.576496  	85.580598 
2858.505312  	85.695857 
2860.434128  	85.790085 
2862.362944  	85.828511 
2864.291760  	85.761147 
2866.220576  	85.607549 
2868.149392  	85.374188 
2870.078208  	85.098069 
2872.007024  	84.837024 
2873.935840  	84.608835 
2875.864656  	84.385945 
2877.793472  	84.159601 
2879.722288  	83.956305 
2881.651104  	83.748419 
2883.579920  	83.546760 
2885.508736  	83.387367 
2887.437552  	83.236477 
2889.366368  	83.120452 
2891.295184  	83.018315 
2893.224000  	82.914414 
2895.152816  	82.851803 
2897.081632  	82.757855 
2899.010448  	82.661221 
2900.939264  	82.558727 
2902.868080  	82.411522 
2904.796896  	82.207681 
2906.725712  	81.953783 
2908.654528  	81.626632 
2910.583344  	81.185792 
2912.512160  	80.673985 
2914.440976  	80.073473 
2916.369792  	79.417868 
2918.298608  	78.844087 
2920.227424  	78.421094 
2922.156240  	78.125850 
2924.085056  	77.962832 
2926.013872  	77.999533 
2927.942688  	78.214493 
2929.871504  	78.598646 
2931.800320  	79.079139 
2933.729136  	79.641697 
2935.657952  	80.256160 
2937.586768  	80.871290 
2939.515584  	81.452869 
2941.444400  	82.011778 
2943.373216  	82.582361 
2945.302032  	83.064127 
2947.230848  	83.483259 
2949.159664  	83.883846 
2951.088480  	84.251268 
2953.017296  	84.606173 
2954.946112  	85.013108 
2956.874928  	85.461496 
2958.803744  	85.900164 
2960.732560  	86.315454 
2962.661376  	86.731300 
2964.590192  	87.168502 
2966.519008  	87.609386 
2968.447824  	88.029476 
2970.376640  	88.414810 
2972.305456  	88.760649 
2974.234272  	89.083661 
2976.163088  	89.376242 
2978.091904  	89.648055 
2980.020720  	89.871076 
2981.949536  	90.057348 
2983.878352  	90.205722 
2985.807168  	90.362647 
2987.735984  	90.525723 
2989.664800  	90.623514 
2991.593616  	90.692112 
2993.522432  	90.760045 
2995.451248  	90.808152 
2997.380064  	90.822257 
2999.308880  	90.824372 
3001.237696  	90.812257 
3003.166512  	90.752698 
3005.095328  	90.706113 
3007.024144  	90.679767 
3008.952960  	90.619674 
3010.881776  	90.541502 
3012.810592  	90.487079 
3014.739408  	90.446857 
3016.668224  	90.406358 
3018.597040  	90.313957 
3020.525856  	90.186187 
3022.454672  	90.071947 
3024.383488  	89.966341 
3026.312304  	89.824313 
3028.241120  	89.655581 
3030.169936  	89.514331 
3032.098752  	89.409247 
3034.027568  	89.317547 
3035.956384  	89.223877 
3037.885200  	89.088714 
3039.814016  	88.944062 
3041.742832  	88.784924 
3043.671648  	88.624097 
3045.600464  	88.470764 
3047.529280  	88.273835 
3049.458096  	88.109153 
3051.386912  	87.959519 
3053.315728  	87.783601 
3055.244544  	87.584757 
3057.173360  	87.391056 
3059.102176  	87.209950 
3061.030992  	87.028629 
3062.959808  	86.825698 
3064.888624  	86.641943 
3066.817440  	86.513710 
3068.746256  	86.379345 
3070.675072  	86.182194 
3072.603888  	85.967935 
3074.532704  	85.777453 
3076.461520  	85.559286 
3078.390336  	85.320366 
3080.319152  	85.114361 
3082.247968  	84.921827 
3084.176784  	84.743498 
3086.105600  	84.545634 
3088.034416  	84.350046 
3089.963232  	84.123492 
3091.892048  	83.839791 
3093.820864  	83.570996 
3095.749680  	83.352302 
3097.678496  	83.185977 
3099.607312  	82.980125 
3101.536128  	82.711776 
3103.464944  	82.479029 
3105.393760  	82.268232 
3107.322576  	82.050535 
3109.251392  	81.807912 
3111.180208  	81.583139 
3113.109024  	81.353896 
3115.037840  	81.125094 
3116.966656  	80.881286 
3118.895472  	80.598747 
3120.824288  	80.322335 
3122.753104  	80.056902 
3124.681920  	79.833344 
3126.610736  	79.615716 
3128.539552  	79.353094 
3130.468368  	79.082981 
3132.397184  	78.838528 
3134.326000  	78.638403 
3136.254816  	78.392878 
3138.183632  	78.120825 
3140.112448  	77.850540 
3142.041264  	77.586536 
3143.970080  	77.320340 
3145.898896  	77.080828 
3147.827712  	76.862269 
3149.756528  	76.632101 
3151.685344  	76.339608 
3153.614160  	76.055791 
3155.542976  	75.785473 
3157.471792  	75.523473 
3159.400608  	75.243115 
3161.329424  	74.970111 
3163.258240  	74.705099 
3165.187056  	74.465891 
3167.115872  	74.208908 
3169.044688  	73.945174 
3170.973504  	73.706187 
3172.902320  	73.441122 
3174.831136  	73.184118 
3176.759952  	72.935069 
3178.688768  	72.669155 
3180.617584  	72.451414 
3182.546400  	72.194710 
3184.475216  	71.935072 
3186.404032  	71.703991 
3188.332848  	71.486818 
3190.261664  	71.280723 
3192.190480  	71.039797 
3194.119296  	70.772441 
3196.048112  	70.552715 
3197.976928  	70.362030 
3199.905744  	70.186869 
3201.834560  	69.967042 
3203.763376  	69.721488 
3205.692192  	69.505150 
3207.621008  	69.305346 
3209.549824  	69.083684 
3211.478640  	68.901725 
3213.407456  	68.710125 
3215.336272  	68.517682 
3217.265088  	68.307538 
3219.193904  	68.131400 
3221.122720  	67.972114 
3223.051536  	67.783283 
3224.980352  	67.633260 
3226.909168  	67.480496 
3228.837984  	67.317805 
3230.766800  	67.213527 
3232.695616  	67.085364 
3234.624432  	66.914860 
3236.553248  	66.745538 
3238.482064  	66.620358 
3240.410880  	66.458636 
3242.339696  	66.325311 
3244.268512  	66.224844 
3246.197328  	66.110630 
3248.126144  	65.998484 
3250.054960  	65.858204 
3251.983776  	65.728742 
3253.912592  	65.651760 
3255.841408  	65.557243 
3257.770224  	65.457911 
3259.699040  	65.397283 
3261.627856  	65.331987 
3263.556672  	65.241365 
3265.485488  	65.196283 
3267.414304  	65.166776 
3269.343120  	65.113892 
3271.271936  	65.016166 
3273.200752  	64.912193 
3275.129568  	64.817541 
3277.058384  	64.776125 
3278.987200  	64.738704 
3280.916016  	64.698926 
3282.844832  	64.681046 
3284.773648  	64.657046 
3286.702464  	64.675015 
3288.631280  	64.688093 
3290.560096  	64.661208 
3292.488912  	64.656656 
3294.417728  	64.649446 
3296.346544  	64.625356 
3298.275360  	64.642314 
3300.204176  	64.673532 
3302.132992  	64.701484 
3304.061808  	64.739740 
3305.990624  	64.756403 
3307.919440  	64.736733 
3309.848256  	64.717784 
3311.777072  	64.727078 
3313.705888  	64.786610 
3315.634704  	64.869033 
3317.563520  	64.890612 
3319.492336  	64.930758 
3321.421152  	64.992507 
3323.349968  	65.067387 
3325.278784  	65.122839 
3327.207600  	65.137306 
3329.136416  	65.196574 
3331.065232  	65.284586 
3332.994048  	65.365412 
3334.922864  	65.458898 
3336.851680  	65.588890 
3338.780496  	65.694970 
3340.709312  	65.774507 
3342.638128  	65.892210 
3344.566944  	65.994240 
3346.495760  	66.113663 
3348.424576  	66.251024 
3350.353392  	66.330087 
3352.282208  	66.362785 
3354.211024  	66.440978 
3356.139840  	66.586129 
3358.068656  	66.724960 
3359.997472  	66.835354 
3361.926288  	66.995784 
3363.855104  	67.182871 
3365.783920  	67.364045 
3367.712736  	67.516776 
3369.641552  	67.669284 
3371.570368  	67.773834 
3373.499184  	67.898347 
3375.428000  	68.090291 
3377.356816  	68.250896 
3379.285632  	68.403228 
3381.214448  	68.584547 
3383.143264  	68.725888 
3385.072080  	68.930646 
3387.000896  	69.158880 
3388.929712  	69.354239 
3390.858528  	69.510132 
3392.787344  	69.669016 
3394.716160  	69.909090 
3396.644976  	70.154320 
3398.573792  	70.393609 
3400.502608  	70.577168 
3402.431424  	70.766241 
3404.360240  	70.989141 
3406.289056  	71.222246 
3408.217872  	71.446888 
3410.146688  	71.651191 
3412.075504  	71.847204 
3414.004320  	72.041930 
3415.933136  	72.224210 
3417.861952  	72.388794 
3419.790768  	72.557449 
3421.719584  	72.867858 
3423.648400  	73.221423 
3425.577216  	73.512839 
3427.506032  	73.768279 
3429.434848  	74.011364 
3431.363664  	74.235777 
3433.292480  	74.478328 
3435.221296  	74.736606 
3437.150112  	74.929901 
3439.078928  	75.056733 
3441.007744  	75.220698 
3442.936560  	75.459866 
3444.865376  	75.691111 
3446.794192  	75.927813 
3448.723008  	76.325205 
3450.651824  	76.668687 
3452.580640  	76.906416 
3454.509456  	77.135354 
3456.438272  	77.373653 
3458.367088  	77.620482 
3460.295904  	77.842194 
3462.224720  	78.046897 
3464.153536  	78.326739 
3466.082352  	78.615135 
3468.011168  	78.907539 
3469.939984  	79.174234 
3471.868800  	79.425390 
3473.797616  	79.640290 
3475.726432  	79.857776 
3477.655248  	80.092159 
3479.584064  	80.249681 
3481.512880  	80.464303 
3483.441696  	80.837890 
3485.370512  	81.126700 
3487.299328  	81.387745 
3489.228144  	81.724237 
3491.156960  	82.017293 
3493.085776  	82.237574 
3495.014592  	82.436643 
3496.943408  	82.661340 
3498.872224  	82.829018 
3500.801040  	82.809946 
3502.729856  	82.968283 
3504.658672  	83.486241 
3506.587488  	83.890399 
3508.516304  	84.049124 
3510.445120  	84.386249 
3512.373936  	84.819321 
3514.302752  	85.117865 
3516.231568  	85.357860 
3518.160384  	85.484431 
3520.089200  	85.568199 
3522.018016  	85.565448 
3523.946832  	85.683136 
3525.875648  	86.012202 
3527.804464  	86.405372 
3529.733280  	86.885484 
3531.662096  	87.285145 
3533.590912  	87.539156 
3535.519728  	87.664283 
3537.448544  	87.967200 
3539.377360  	88.303302 
3541.306176  	88.384384 
3543.234992  	88.221717 
3545.163808  	88.251018 
3547.092624  	88.752151 
3549.021440  	89.254315 
3550.950256  	89.437438 
3552.879072  	89.730384 
3554.807888  	90.223161 
3556.736704  	90.526537 
3558.665520  	90.533953 
3560.594336  	90.469358 
3562.523152  	90.373636 
3564.451968  	89.948568 
3566.380784  	89.774156 
3568.309600  	90.866520 
3570.238416  	91.859278 
3572.167232  	92.279542 
3574.096048  	92.451740 
3576.024864  	92.638727 
3577.953680  	92.812011 
3579.882496  	92.954831 
3581.811312  	93.027992 
3583.740128  	92.832653 
3585.668944  	92.365768 
3587.597760  	92.458431 
3589.526576  	93.296392 
3591.455392  	93.582631 
3593.384208  	93.453759 
3595.313024  	93.583141 
3597.241840  	93.901237 
3599.170656  	94.117027 
3601.099472  	94.456344 
3603.028288  	94.818042 
3604.957104  	94.790703 
3606.885920  	94.428220 
3608.814736  	94.494487 
3610.743552  	94.670715 
3612.672368  	94.526235 
3614.601184  	94.689766 
3616.530000  	94.834020 
3618.458816  	94.891229 
3620.387632  	95.421059 
3622.316448  	95.948790 
3624.245264  	95.921319 
3626.174080  	95.408754 
3628.102896  	94.923019 
3630.031712  	95.602782 
3631.960528  	96.324455 
3633.889344  	96.722188 
3635.818160  	97.116886 
3637.746976  	97.261442 
3639.675792  	97.309784 
3641.604608  	97.268992 
3643.533424  	97.064763 
3645.462240  	96.256622 
3647.391056  	95.126553 
3649.319872  	95.433034 
3651.248688  	96.739148 
3653.177504  	97.545812 
3655.106320  	97.633774 
3657.035136  	97.941425 
3658.963952  	98.332649 
3660.892768  	98.472744 
3662.821584  	98.548780 
3664.750400  	98.450165 
3666.679216  	97.924538 
3668.608032  	97.090660 
3670.536848  	96.932548 
3672.465664  	97.128089 
3674.394480  	96.659105 
3676.323296  	96.988494 
3678.252112  	97.811472 
3680.180928  	98.379224 
3682.109744  	98.633678 
3684.038560  	98.518190 
3685.967376  	98.041851 
3687.896192  	97.376732 
3689.825008  	97.279881 
3691.753824  	97.938150 
3693.682640  	98.515075 
3695.611456  	98.662512 
3697.540272  	98.662497 
3699.469088  	98.449580 
3701.397904  	98.273793 
3703.326720  	98.478533 
3705.255536  	98.532643 
3707.184352  	98.129666 
3709.113168  	97.442285 
3711.041984  	97.221208 
3712.970800  	97.912386 
3714.899616  	98.541066 
3716.828432  	98.612325 
3718.757248  	98.267823 
3720.686064  	97.847385 
3722.614880  	97.501669 
3724.543696  	97.464333 
3726.472512  	97.640114 
3728.401328  	97.982944 
3730.330144  	97.719470 
3732.258960  	96.895646 
3734.187776  	96.120001 
3736.116592  	96.407593 
3738.045408  	97.351120 
3739.974224  	97.692693 
3741.903040  	97.465145 
3743.831856  	96.977048 
3745.760672  	96.948982 
3747.689488  	96.846432 
3749.618304  	96.605527 
3751.547120  	97.003234 
3753.475936  	97.883092 
3755.404752  	98.270961 
3757.333568  	98.260970 
3759.262384  	98.384422 
3761.191200  	98.796892 
3763.120016  	98.854796 
3765.048832  	98.630605 
3766.977648  	98.689738 
3768.906464  	98.685642 
3770.835280  	98.919327 
3772.764096  	99.358129 
3774.692912  	99.416311 
3776.621728  	99.167052 
3778.550544  	98.854553 
3780.479360  	98.923797 
3782.408176  	99.074483 
3784.336992  	99.027906 
3786.265808  	99.177082 
3788.194624  	99.422423 
3790.123440  	99.485812 
3792.052256  	99.403101 
3793.981072  	99.082904 
3795.909888  	98.494821 
3797.838704  	98.216503 
3799.767520  	97.930289 
3801.696336  	97.845888 
3803.625152  	98.442505 
3805.553968  	98.614383 
3807.482784  	98.811980 
3809.411600  	99.243492 
3811.340416  	99.290028 
3813.269232  	98.917213 
3815.198048  	98.264079 
3817.126864  	98.041746 
3819.055680  	97.815038 
3820.984496  	97.687495 
3822.913312  	98.351540 
3824.842128  	98.626520 
3826.770944  	98.653091 
3828.699760  	98.821922 
3830.628576  	98.680654 
3832.557392  	98.378300 
3834.486208  	98.088438 
3836.415024  	97.662731 
3838.343840  	97.407806 
3840.272656  	97.788085 
3842.201472  	98.449316 
3844.130288  	98.822405 
3846.059104  	99.036007 
3847.987920  	98.777592 
3849.916736  	98.082803 
3851.845552  	97.192369 
3853.774368  	97.432805 
3855.703184  	98.220892 
3857.632000  	98.644023 
3859.560816  	98.771325 
3861.489632  	98.328997 
3863.418448  	97.933016 
3865.347264  	98.099287 
3867.276080  	98.283074 
3869.204896  	97.843487 
3871.133712  	97.997933 
3873.062528  	98.349963 
3874.991344  	98.710914 
3876.920160  	98.962939 
3878.848976  	98.558798 
3880.777792  	98.141360 
3882.706608  	98.263178 
3884.635424  	98.312033 
3886.564240  	98.681779 
3888.493056  	98.882146 
3890.421872  	98.494350 
3892.350688  	98.487843 
3894.279504  	98.869888 
3896.208320  	98.794474 
3898.137136  	98.231847 
3900.065952  	97.757827 
3901.994768  	97.566217 
3903.923584  	97.859167 
3905.852400  	98.640690 
3907.781216  	99.296282 
3909.710032  	99.517030 
3911.638848  	99.435543 
3913.567664  	99.191408 
3915.496480  	98.783918 
3917.425296  	98.629931 
3919.354112  	98.807527 
3921.282928  	98.867090 
3923.211744  	98.701761 
3925.140560  	98.743419 
3927.069376  	98.982588 
3928.998192  	98.811057 
3930.927008  	98.618541 
3932.855824  	98.819744 
3934.784640  	99.202899 
3936.713456  	99.303419 
3938.642272  	99.249375 
3940.571088  	99.042998 
3942.499904  	98.788470 
3944.428720  	98.884646 
3946.357536  	98.906884 
3948.286352  	98.771348 
3950.215168  	98.965144 
3952.143984  	99.235876 
3954.072800  	99.348627 
3956.001616  	99.313406 
3957.930432  	99.275028 
3959.859248  	99.198747 
3961.788064  	99.148731 
3963.716880  	99.272176 
3965.645696  	99.376179 
3967.574512  	99.333058 
3969.503328  	99.278052 
3971.432144  	99.220589 
3973.360960  	99.182331 
3975.289776  	99.204766 
3977.218592  	99.291611 
3979.147408  	99.339482 
3981.076224  	99.382998 
3983.005040  	99.434991 
3984.933856  	99.451917 
3986.862672  	99.434508 
3988.791488  	99.351489 
3990.720304  	99.310878 
3992.649120  	99.343897 
3994.577936  	99.368171 
3996.506752  	99.469126 
3998.435568  	99.487169 
4000.364384  	99.454655 