##TITLE=No Description
##DATA TYPE=INFRARED SPECTRUM
##XUNITS=1/CM
##YUNITS=%T
399.264912  	78.863519 
401.193728  	84.900722 
403.122544  	91.004557 
405.051360  	89.597491 
406.980176  	86.547685 
408.908992  	85.208234 
410.837808  	85.173829 
412.766624  	90.699331 
414.695440  	94.134497 
416.624256  	91.343644 
418.553072  	79.900875 
420.481888  	89.830270 
422.410704  	99.455903 
424.339520  	105.665393 
426.268336  	112.989379 
428.197152  	108.690925 
430.125968  	96.862339 
432.054784  	93.851112 
433.983600  	100.613409 
435.912416  	105.183839 
437.841232  	108.257730 
439.770048  	108.535936 
441.698864  	101.432813 
443.627680  	101.333097 
445.556496  	103.643526 
447.485312  	104.512411 
449.414128  	103.421031 
451.342944  	104.533138 
453.271760  	105.258070 
455.200576  	106.600871 
457.129392  	112.100929 
459.058208  	113.562440 
460.987024  	109.311673 
462.915840  	104.712421 
464.844656  	104.922939 
466.773472  	105.159677 
468.702288  	102.728722 
470.631104  	102.924549 
472.559920  	103.716473 
474.488736  	103.648802 
476.417552  	101.018205 
478.346368  	104.197748 
480.275184  	109.430301 
482.204000  	111.473443 
484.132816  	109.340041 
486.061632  	107.779069 
487.990448  	103.456220 
489.919264  	102.366547 
491.848080  	103.387642 
493.776896  	105.545108 
495.705712  	104.931472 
497.634528  	103.085839 
499.563344  	107.389303 
501.492160  	110.729715 
503.420976  	107.273491 
505.349792  	106.234057 
507.278608  	103.141639 
509.207424  	102.631706 
511.136240  	102.805843 
513.065056  	104.541836 
514.993872  	103.045307 
516.922688  	100.149938 
518.851504  	99.639141 
520.780320  	97.993857 
522.709136  	97.037714 
524.637952  	97.494050 
526.566768  	94.861529 
528.495584  	91.545724 
530.424400  	88.004825 
532.353216  	86.635892 
534.282032  	83.868075 
536.210848  	81.636777 
538.139664  	79.765074 
540.068480  	79.516647 
541.997296  	78.349896 
543.926112  	77.270314 
545.854928  	75.270354 
547.783744  	74.182915 
549.712560  	73.923878 
551.641376  	72.904924 
553.570192  	71.731164 
555.499008  	71.185738 
557.427824  	70.089435 
559.356640  	69.687882 
561.285456  	69.083992 
563.214272  	68.758479 
565.143088  	68.415307 
567.071904  	66.821143 
569.000720  	65.428181 
570.929536  	65.450097 
572.858352  	65.260581 
574.787168  	64.711132 
576.715984  	64.435727 
578.644800  	63.868344 
580.573616  	63.440920 
582.502432  	62.948195 
584.431248  	61.855960 
586.360064  	60.942461 
588.288880  	60.089587 
590.217696  	59.487360 
592.146512  	58.913583 
594.075328  	58.378856 
596.004144  	57.466612 
597.932960  	56.880756 
599.861776  	56.505456 
601.790592  	56.266936 
603.719408  	56.327184 
605.648224  	56.899299 
607.577040  	57.688690 
609.505856  	58.424455 
611.434672  	58.951403 
613.363488  	59.206415 
615.292304  	59.435676 
617.221120  	59.828016 
619.149936  	59.705822 
621.078752  	59.269140 
623.007568  	58.918730 
624.936384  	58.416546 
626.865200  	57.812505 
628.794016  	57.317038 
630.722832  	56.886956 
632.651648  	56.567872 
634.580464  	56.377334 
636.509280  	56.357641 
638.438096  	56.066857 
640.366912  	55.531484 
642.295728  	54.949942 
644.224544  	54.602299 
646.153360  	54.327374 
648.082176  	54.045790 
650.010992  	53.947607 
651.939808  	53.851560 
653.868624  	53.697046 
655.797440  	53.589040 
657.726256  	53.464540 
659.655072  	53.391038 
661.583888  	53.308662 
663.512704  	53.141441 
665.441520  	52.853266 
667.370336  	52.602456 
669.299152  	53.032633 
671.227968  	53.103873 
673.156784  	53.155229 
675.085600  	53.202236 
677.014416  	53.384599 
678.943232  	53.567829 
680.872048  	53.838465 
682.800864  	54.147307 
684.729680  	54.352231 
686.658496  	54.553182 
688.587312  	54.747727 
690.516128  	54.828947 
692.444944  	54.898938 
694.373760  	54.968627 
696.302576  	54.955426 
698.231392  	54.862055 
700.160208  	54.782409 
702.089024  	54.738643 
704.017840  	54.767982 
705.946656  	54.875654 
707.875472  	55.083435 
709.804288  	55.369499 
711.733104  	55.798476 
713.661920  	56.325441 
715.590736  	56.869722 
717.519552  	57.387430 
719.448368  	57.979444 
721.377184  	58.641947 
723.306000  	59.213968 
725.234816  	59.712491 
727.163632  	60.144607 
729.092448  	60.519347 
731.021264  	60.843810 
732.950080  	61.101010 
734.878896  	61.359008 
736.807712  	61.541695 
738.736528  	61.688735 
740.665344  	61.815280 
742.594160  	61.890663 
744.522976  	61.871803 
746.451792  	61.777903 
748.380608  	61.590593 
750.309424  	61.316203 
752.238240  	60.977237 
754.167056  	60.640696 
756.095872  	60.382551 
758.024688  	60.196122 
759.953504  	60.056912 
761.882320  	60.148812 
763.811136  	60.498521 
765.739952  	61.021221 
767.668768  	61.686756 
769.597584  	62.510345 
771.526400  	63.421954 
773.455216  	64.396063 
775.384032  	65.306550 
777.312848  	66.063180 
779.241664  	66.685112 
781.170480  	67.233745 
783.099296  	67.711764 
785.028112  	68.091506 
786.956928  	68.433448 
788.885744  	68.800719 
790.814560  	69.131136 
792.743376  	69.470488 
794.672192  	69.814460 
796.601008  	70.170455 
798.529824  	70.541184 
800.458640  	70.855734 
802.387456  	71.137391 
804.316272  	71.531694 
806.245088  	71.856463 
808.173904  	72.049655 
810.102720  	72.212559 
812.031536  	72.363116 
813.960352  	72.529399 
815.889168  	72.701353 
817.817984  	72.818683 
819.746800  	72.918517 
821.675616  	73.012117 
823.604432  	73.107647 
825.533248  	73.169370 
827.462064  	73.184807 
829.390880  	73.074909 
831.319696  	72.856298 
833.248512  	72.541519 
835.177328  	72.092415 
837.106144  	71.543648 
839.034960  	70.984997 
840.963776  	70.455683 
842.892592  	69.977692 
844.821408  	69.599228 
846.750224  	69.275220 
848.679040  	68.997129 
850.607856  	68.789551 
852.536672  	68.665299 
854.465488  	68.587874 
856.394304  	68.473744 
858.323120  	68.375352 
860.251936  	68.356413 
862.180752  	68.613063 
864.109568  	69.315473 
866.038384  	70.461742 
867.967200  	71.839252 
869.896016  	73.358898 
871.824832  	74.842828 
873.753648  	76.195979 
875.682464  	77.348750 
877.611280  	78.261944 
879.540096  	78.928702 
881.468912  	79.364192 
883.397728  	79.528667 
885.326544  	79.525803 
887.255360  	79.401175 
889.184176  	79.133966 
891.112992  	78.764467 
893.041808  	78.371945 
894.970624  	77.895564 
896.899440  	77.363350 
898.828256  	76.867058 
900.757072  	76.357393 
902.685888  	75.772085 
904.614704  	75.100328 
906.543520  	74.331423 
908.472336  	73.511401 
910.401152  	72.665806 
912.329968  	71.747776 
914.258784  	70.768652 
916.187600  	69.746065 
918.116416  	68.671233 
920.045232  	67.663396 
921.974048  	66.916052 
923.902864  	66.499355 
925.831680  	66.386571 
927.760496  	66.560870 
929.689312  	66.981910 
931.618128  	67.568280 
933.546944  	68.275057 
935.475760  	69.141374 
937.404576  	70.097129 
939.333392  	71.077362 
941.262208  	72.072510 
943.191024  	73.093295 
945.119840  	74.020254 
947.048656  	74.729772 
948.977472  	75.190733 
950.906288  	75.334799 
952.835104  	75.092732 
954.763920  	74.531908 
956.692736  	73.709111 
958.621552  	72.673756 
960.550368  	71.401130 
962.479184  	69.853248 
964.408000  	68.130016 
966.336816  	66.222183 
968.265632  	64.123302 
970.194448  	61.895996 
972.123264  	59.528043 
974.052080  	56.985889 
975.980896  	54.175421 
977.909712  	51.039574 
979.838528  	47.527997 
981.767344  	43.693704 
983.696160  	39.665404 
985.624976  	35.715411 
987.553792  	32.125692 
989.482608  	29.107527 
991.411424  	26.754265 
993.340240  	25.026905 
995.269056  	23.879510 
997.197872  	23.251623 
999.126688  	22.981398 
1001.055504  	22.946554 
1002.984320  	23.089650 
1004.913136  	23.337162 
1006.841952  	23.592156 
1008.770768  	23.791149 
1010.699584  	23.955868 
1012.628400  	24.166186 
1014.557216  	24.516938 
1016.486032  	25.086595 
1018.414848  	25.862013 
1020.343664  	26.871047 
1022.272480  	28.111843 
1024.201296  	29.534089 
1026.130112  	31.116182 
1028.058928  	32.809441 
1029.987744  	34.464217 
1031.916560  	35.921888 
1033.845376  	37.116923 
1035.774192  	38.060702 
1037.703008  	38.848697 
1039.631824  	39.628147 
1041.560640  	40.528400 
1043.489456  	41.656533 
1045.418272  	42.995973 
1047.347088  	44.534035 
1049.275904  	46.247357 
1051.204720  	48.148231 
1053.133536  	50.260424 
1055.062352  	52.509597 
1056.991168  	54.801669 
1058.919984  	57.099495 
1060.848800  	59.329557 
1062.777616  	61.285461 
1064.706432  	62.662371 
1066.635248  	63.122825 
1068.564064  	62.267773 
1070.492880  	60.021698 
1072.421696  	56.842003 
1074.350512  	53.853512 
1076.279328  	52.247184 
1078.208144  	52.341584 
1080.136960  	53.672961 
1082.065776  	55.689266 
1083.994592  	57.958432 
1085.923408  	60.177567 
1087.852224  	62.167633 
1089.781040  	63.755182 
1091.709856  	64.788115 
1093.638672  	65.260950 
1095.567488  	65.249859 
1097.496304  	64.906826 
1099.425120  	64.456626 
1101.353936  	64.080641 
1103.282752  	63.928520 
1105.211568  	64.134088 
1107.140384  	64.637993 
1109.069200  	65.298973 
1110.998016  	66.043070 
1112.926832  	66.822032 
1114.855648  	67.569877 
1116.784464  	68.237613 
1118.713280  	68.845626 
1120.642096  	69.447992 
1122.570912  	70.079312 
1124.499728  	70.804665 
1126.428544  	71.663623 
1128.357360  	72.599925 
1130.286176  	73.415860 
1132.214992  	73.877576 
1134.143808  	73.786186 
1136.072624  	73.070956 
1138.001440  	71.778076 
1139.930256  	70.048798 
1141.859072  	68.067051 
1143.787888  	66.084877 
1145.716704  	64.385721 
1147.645520  	63.184467 
1149.574336  	62.642917 
1151.503152  	62.853351 
1153.431968  	63.855700 
1155.360784  	65.637716 
1157.289600  	68.000776 
1159.218416  	70.735452 
1161.147232  	73.644416 
1163.076048  	76.537286 
1165.004864  	79.250312 
1166.933680  	81.682309 
1168.862496  	83.802057 
1170.791312  	85.558159 
1172.720128  	86.929098 
1174.648944  	88.001413 
1176.577760  	88.792139 
1178.506576  	89.329620 
1180.435392  	89.687183 
1182.364208  	89.883426 
1184.293024  	89.889318 
1186.221840  	89.771903 
1188.150656  	89.575789 
1190.079472  	89.293095 
1192.008288  	88.906362 
1193.937104  	88.462782 
1195.865920  	87.964417 
1197.794736  	87.452030 
1199.723552  	87.016828 
1201.652368  	86.708018 
1203.581184  	86.513336 
1205.510000  	86.420900 
1207.438816  	86.436214 
1209.367632  	86.528984 
1211.296448  	86.687210 
1213.225264  	86.853379 
1215.154080  	86.994193 
1217.082896  	87.094839 
1219.011712  	87.102932 
1220.940528  	87.009722 
1222.869344  	86.831113 
1224.798160  	86.578571 
1226.726976  	86.292742 
1228.655792  	85.995277 
1230.584608  	85.707519 
1232.513424  	85.440103 
1234.442240  	85.225294 
1236.371056  	85.078749 
1238.299872  	84.960719 
1240.228688  	84.883161 
1242.157504  	84.888476 
1244.086320  	84.958167 
1246.015136  	85.078435 
1247.943952  	85.247522 
1249.872768  	85.417524 
1251.801584  	85.551322 
1253.730400  	85.675289 
1255.659216  	85.787362 
1257.588032  	85.835757 
1259.516848  	85.857997 
1261.445664  	85.905808 
1263.374480  	85.948738 
1265.303296  	85.999547 
1267.232112  	86.025303 
1269.160928  	86.007129 
1271.089744  	85.974420 
1273.018560  	85.921338 
1274.947376  	85.788076 
1276.876192  	85.589849 
1278.805008  	85.397104 
1280.733824  	85.186321 
1282.662640  	84.961877 
1284.591456  	84.730629 
1286.520272  	84.478387 
1288.449088  	84.252393 
1290.377904  	84.034972 
1292.306720  	83.779323 
1294.235536  	83.520249 
1296.164352  	83.287169 
1298.093168  	83.112696 
1300.021984  	83.020342 
1301.950800  	82.984221 
1303.879616  	82.990354 
1305.808432  	82.994115 
1307.737248  	82.949084 
1309.666064  	82.835348 
1311.594880  	82.638578 
1313.523696  	82.417551 
1315.452512  	82.152094 
1317.381328  	81.805441 
1319.310144  	81.478763 
1321.238960  	81.170243 
1323.167776  	80.835228 
1325.096592  	80.467280 
1327.025408  	80.111722 
1328.954224  	79.784141 
1330.883040  	79.522816 
1332.811856  	79.333084 
1334.740672  	79.166272 
1336.669488  	79.001918 
1338.598304  	78.949248 
1340.527120  	79.159617 
1342.455936  	79.353169 
1344.384752  	79.462725 
1346.313568  	79.535244 
1348.242384  	79.569929 
1350.171200  	79.599892 
1352.100016  	79.558607 
1354.028832  	79.493636 
1355.957648  	79.485418 
1357.886464  	79.462690 
1359.815280  	79.357615 
1361.744096  	79.317940 
1363.672912  	79.528642 
1365.601728  	79.643479 
1367.530544  	79.708415 
1369.459360  	79.888597 
1371.388176  	80.011192 
1373.316992  	80.206379 
1375.245808  	80.704586 
1377.174624  	81.046222 
1379.103440  	81.313832 
1381.032256  	81.635250 
1382.961072  	81.973894 
1384.889888  	82.185380 
1386.818704  	82.546508 
1388.747520  	83.022741 
1390.676336  	83.152275 
1392.605152  	83.034294 
1394.533968  	82.853343 
1396.462784  	82.680615 
1398.391600  	82.545685 
1400.320416  	82.519027 
1402.249232  	82.296859 
1404.178048  	82.055176 
1406.106864  	81.973499 
1408.035680  	81.881046 
1409.964496  	81.752713 
1411.893312  	81.717141 
1413.822128  	81.661817 
1415.750944  	81.440842 
1417.679760  	81.367153 
1419.608576  	81.821698 
1421.537392  	81.943643 
1423.466208  	82.030966 
1425.395024  	82.315513 
1427.323840  	82.375307 
1429.252656  	82.489309 
1431.181472  	82.743613 
1433.110288  	82.824758 
1435.039104  	82.844350 
1436.967920  	83.360884 
1438.896736  	83.705507 
1440.825552  	83.840553 
1442.754368  	83.971548 
1444.683184  	83.998958 
1446.612000  	83.973517 
1448.540816  	84.041226 
1450.469632  	83.974534 
1452.398448  	83.733205 
1454.327264  	83.327139 
1456.256080  	83.047199 
1458.184896  	83.747737 
1460.113712  	84.304862 
1462.042528  	84.625044 
1463.971344  	85.143685 
1465.900160  	86.166425 
1467.828976  	86.855476 
1469.757792  	87.318325 
1471.686608  	87.902549 
1473.615424  	88.994439 
1475.544240  	89.797269 
1477.473056  	90.597172 
1479.401872  	91.071863 
1481.330688  	91.529073 
1483.259504  	91.969514 
1485.188320  	92.172419 
1487.117136  	92.234084 
1489.045952  	92.410536 
1490.974768  	92.990214 
1492.903584  	93.305146 
1494.832400  	93.319582 
1496.761216  	93.434371 
1498.690032  	93.701300 
1500.618848  	93.885586 
1502.547664  	93.854851 
1504.476480  	93.594421 
1506.405296  	93.177092 
1508.334112  	93.608924 
1510.262928  	94.009425 
1512.191744  	94.217200 
1514.120560  	94.154297 
1516.049376  	93.961427 
1517.978192  	93.998319 
1519.907008  	93.894387 
1521.835824  	94.051806 
1523.764640  	94.275945 
1525.693456  	94.349388 
1527.622272  	94.605172 
1529.551088  	94.786636 
1531.479904  	94.690649 
1533.408720  	94.778078 
1535.337536  	95.040076 
1537.266352  	94.885968 
1539.195168  	94.508137 
1541.123984  	94.614031 
1543.052800  	94.754586 
1544.981616  	94.961491 
1546.910432  	95.129573 
1548.839248  	95.005309 
1550.768064  	94.912470 
1552.696880  	94.842817 
1554.625696  	94.652829 
1556.554512  	94.341412 
1558.483328  	94.209979 
1560.412144  	94.883875 
1562.340960  	94.982707 
1564.269776  	95.015431 
1566.198592  	95.015498 
1568.127408  	94.896565 
1570.056224  	95.013274 
1571.985040  	95.178231 
1573.913856  	95.023258 
1575.842672  	94.915135 
1577.771488  	95.073821 
1579.700304  	95.077197 
1581.629120  	94.964656 
1583.557936  	94.834222 
1585.486752  	94.687388 
1587.415568  	94.528817 
1589.344384  	94.352161 
1591.273200  	94.197510 
1593.202016  	94.002658 
1595.130832  	93.866734 
1597.059648  	93.752659 
1598.988464  	93.583100 
1600.917280  	93.325096 
1602.846096  	93.095090 
1604.774912  	92.865677 
1606.703728  	92.581597 
1608.632544  	92.257763 
1610.561360  	92.019497 
1612.490176  	91.689539 
1614.418992  	91.232289 
1616.347808  	90.831409 
1618.276624  	90.621379 
1620.205440  	90.220158 
1622.134256  	89.767772 
1624.063072  	89.482290 
1625.991888  	89.226624 
1627.920704  	88.949214 
1629.849520  	88.756705 
1631.778336  	88.368034 
1633.707152  	87.919760 
1635.635968  	87.766287 
1637.564784  	87.839020 
1639.493600  	87.734633 
1641.422416  	87.657556 
1643.351232  	87.400003 
1645.280048  	87.072837 
1647.208864  	87.211222 
1649.137680  	87.384513 
1651.066496  	87.117913 
1652.995312  	87.535019 
1654.924128  	88.208607 
1656.852944  	88.413838 
1658.781760  	88.607401 
1660.710576  	88.727105 
1662.639392  	89.101818 
1664.568208  	89.515396 
1666.497024  	89.551364 
1668.425840  	89.697173 
1670.354656  	90.213764 
1672.283472  	90.611296 
1674.212288  	90.910147 
1676.141104  	91.474778 
1678.069920  	91.692868 
1679.998736  	91.795679 
1681.927552  	91.813493 
1683.856368  	92.337525 
1685.785184  	93.060256 
1687.714000  	93.255749 
1689.642816  	93.645626 
1691.571632  	93.941461 
1693.500448  	93.972865 
1695.429264  	94.027124 
1697.358080  	94.151647 
1699.286896  	94.375822 
1701.215712  	94.963699 
1703.144528  	95.010411 
1705.073344  	95.124051 
1707.002160  	95.455298 
1708.930976  	95.682697 
1710.859792  	95.773266 
1712.788608  	95.720005 
1714.717424  	95.570744 
1716.646240  	95.623984 
1718.575056  	96.201771 
1720.503872  	96.496651 
1722.432688  	96.576746 
1724.361504  	96.703952 
1726.290320  	96.752317 
1728.219136  	96.669713 
1730.147952  	96.518953 
1732.076768  	96.360418 
1734.005584  	96.428633 
1735.934400  	96.733501 
1737.863216  	96.683402 
1739.792032  	96.655108 
1741.720848  	96.667365 
1743.649664  	96.686788 
1745.578480  	96.707577 
1747.507296  	96.691496 
1749.436112  	96.836004 
1751.364928  	97.232556 
1753.293744  	97.520216 
1755.222560  	97.586607 
1757.151376  	97.696868 
1759.080192  	97.790539 
1761.009008  	97.832290 
1762.937824  	97.995803 
1764.866640  	98.085859 
1766.795456  	98.028515 
1768.724272  	97.954090 
1770.653088  	97.828538 
1772.581904  	97.910095 
1774.510720  	98.156757 
1776.439536  	98.258532 
1778.368352  	98.229696 
1780.297168  	98.242556 
1782.225984  	98.336831 
1784.154800  	98.331350 
1786.083616  	98.398212 
1788.012432  	98.371298 
1789.941248  	98.193323 
1791.870064  	98.144317 
1793.798880  	98.364711 
1795.727696  	98.423533 
1797.656512  	98.446619 
1799.585328  	98.421940 
1801.514144  	98.494894 
1803.442960  	98.626986 
1805.371776  	98.693250 
1807.300592  	98.677545 
1809.229408  	98.645764 
1811.158224  	98.673986 
1813.087040  	98.814937 
1815.015856  	98.888342 
1816.944672  	98.883997 
1818.873488  	98.895380 
1820.802304  	98.883314 
1822.731120  	98.817571 
1824.659936  	98.801577 
1826.588752  	98.781189 
1828.517568  	98.689106 
1830.446384  	98.823742 
1832.375200  	99.029245 
1834.304016  	99.006750 
1836.232832  	98.942118 
1838.161648  	98.978119 
1840.090464  	98.961022 
1842.019280  	98.809870 
1843.948096  	98.786664 
1845.876912  	98.854209 
1847.805728  	98.921190 
1849.734544  	98.993530 
1851.663360  	99.008298 
1853.592176  	99.012705 
1855.520992  	99.005643 
1857.449808  	98.973617 
1859.378624  	98.970617 
1861.307440  	98.998658 
1863.236256  	99.001003 
1865.165072  	98.863688 
1867.093888  	98.708265 
1869.022704  	98.768581 
1870.951520  	98.958629 
1872.880336  	99.006487 
1874.809152  	99.017848 
1876.737968  	99.051963 
1878.666784  	99.078215 
1880.595600  	99.063430 
1882.524416  	99.089608 
1884.453232  	99.073977 
1886.382048  	99.077993 
1888.310864  	99.011186 
1890.239680  	98.986614 
1892.168496  	99.067419 
1894.097312  	99.140268 
1896.026128  	99.170693 
1897.954944  	99.149468 
1899.883760  	99.079325 
1901.812576  	99.068543 
1903.741392  	99.103569 
1905.670208  	99.127701 
1907.599024  	99.096987 
1909.527840  	99.096657 
1911.456656  	99.173152 
1913.385472  	99.186377 
1915.314288  	99.109576 
1917.243104  	99.047987 
1919.171920  	99.064034 
1921.100736  	99.074156 
1923.029552  	99.079182 
1924.958368  	99.176734 
1926.887184  	99.228394 
1928.816000  	99.264465 
1930.744816  	99.231257 
1932.673632  	99.198248 
1934.602448  	99.209164 
1936.531264  	99.271502 
1938.460080  	99.291274 
1940.388896  	99.228445 
1942.317712  	99.159490 
1944.246528  	99.286917 
1946.175344  	99.359956 
1948.104160  	99.321534 
1950.032976  	99.314823 
1951.961792  	99.398264 
1953.890608  	99.469421 
1955.819424  	99.644595 
1957.748240  	99.631419 
1959.677056  	99.531683 
1961.605872  	99.561081 
1963.534688  	99.673905 
1965.463504  	99.678849 
1967.392320  	99.785798 
1969.321136  	99.891842 
1971.249952  	99.965330 
1973.178768  	99.863546 
1975.107584  	99.890788 
1977.036400  	99.859456 
1978.965216  	99.711058 
1980.894032  	99.654945 
1982.822848  	99.720503 
1984.751664  	99.722082 
1986.680480  	99.681516 
1988.609296  	99.627597 
1990.538112  	99.645325 
1992.466928  	99.641082 
1994.395744  	99.746712 
1996.324560  	99.800547 
1998.253376  	99.836633 
2000.182192  	99.838871 
2002.111008  	99.785782 
2004.039824  	99.783865 
2005.968640  	99.917449 
2007.897456  	99.925738 
2009.826272  	99.868302 
2011.755088  	99.848889 
2013.683904  	99.857441 
2015.612720  	99.865996 
2017.541536  	99.906331 
2019.470352  	99.818212 
2021.399168  	99.774484 
2023.327984  	99.741450 
2025.256800  	99.684164 
2027.185616  	99.682120 
2029.114432  	99.652336 
2031.043248  	99.579264 
2032.972064  	99.547557 
2034.900880  	99.450471 
2036.829696  	99.472790 
2038.758512  	99.438949 
2040.687328  	99.294967 
2042.616144  	99.253089 
2044.544960  	99.270166 
2046.473776  	99.215675 
2048.402592  	99.245972 
2050.331408  	99.224865 
2052.260224  	99.130092 
2054.189040  	99.106280 
2056.117856  	99.147744 
2058.046672  	99.092945 
2059.975488  	98.981619 
2061.904304  	99.012164 
2063.833120  	99.029997 
2065.761936  	98.990213 
2067.690752  	98.992975 
2069.619568  	98.913022 
2071.548384  	98.846890 
2073.477200  	98.790787 
2075.406016  	98.779098 
2077.334832  	98.797250 
2079.263648  	98.817309 
2081.192464  	98.795256 
2083.121280  	98.824936 
2085.050096  	98.849463 
2086.978912  	98.844922 
2088.907728  	98.790768 
2090.836544  	98.784550 
2092.765360  	98.795754 
2094.694176  	98.853701 
2096.622992  	98.870895 
2098.551808  	98.876664 
2100.480624  	98.866238 
2102.409440  	98.829393 
2104.338256  	98.786491 
2106.267072  	98.744008 
2108.195888  	98.700451 
2110.124704  	98.717604 
2112.053520  	98.746239 
2113.982336  	98.757189 
2115.911152  	98.742219 
2117.839968  	98.699173 
2119.768784  	98.707352 
2121.697600  	98.777211 
2123.626416  	98.781040 
2125.555232  	98.819699 
2127.484048  	98.877647 
2129.412864  	98.893653 
2131.341680  	98.884863 
2133.270496  	98.984937 
2135.199312  	99.073104 
2137.128128  	99.022523 
2139.056944  	98.988908 
2140.985760  	99.081365 
2142.914576  	99.078088 
2144.843392  	99.073187 
2146.772208  	99.154754 
2148.701024  	99.272161 
2150.629840  	99.349959 
2152.558656  	99.381328 
2154.487472  	99.428968 
2156.416288  	99.568776 
2158.345104  	99.426365 
2160.273920  	99.250298 
2162.202736  	99.169503 
2164.131552  	99.138662 
2166.060368  	99.101595 
2167.989184  	99.106864 
2169.918000  	99.112061 
2171.846816  	99.134281 
2173.775632  	99.196128 
2175.704448  	99.211459 
2177.633264  	99.148736 
2179.562080  	99.090660 
2181.490896  	99.017410 
2183.419712  	98.999674 
2185.348528  	99.026495 
2187.277344  	99.107243 
2189.206160  	99.165914 
2191.134976  	99.035207 
2193.063792  	98.974337 
2194.992608  	99.075579 
2196.921424  	99.138703 
2198.850240  	99.149390 
2200.779056  	99.095012 
2202.707872  	99.097029 
2204.636688  	99.145179 
2206.565504  	99.242378 
2208.494320  	99.276974 
2210.423136  	99.230595 
2212.351952  	99.214050 
2214.280768  	99.198020 
2216.209584  	99.148885 
2218.138400  	99.157619 
2220.067216  	99.139086 
2221.996032  	99.140124 
2223.924848  	99.147526 
2225.853664  	99.177168 
2227.782480  	99.140228 
2229.711296  	99.108624 
2231.640112  	99.085523 
2233.568928  	99.111764 
2235.497744  	99.128156 
2237.426560  	99.133721 
2239.355376  	99.103942 
2241.284192  	99.116898 
2243.213008  	99.095060 
2245.141824  	99.144950 
2247.070640  	99.178030 
2248.999456  	99.163355 
2250.928272  	99.160737 
2252.857088  	99.154691 
2254.785904  	99.150761 
2256.714720  	99.162245 
2258.643536  	99.138235 
2260.572352  	99.122303 
2262.501168  	99.105272 
2264.429984  	99.111185 
2266.358800  	99.132791 
2268.287616  	99.138853 
2270.216432  	99.142831 
2272.145248  	99.131419 
2274.074064  	99.121824 
2276.002880  	99.108905 
2277.931696  	99.134618 
2279.860512  	99.111445 
2281.789328  	99.085751 
2283.718144  	99.077943 
2285.646960  	99.062043 
2287.575776  	99.045761 
2289.504592  	99.042547 
2291.433408  	99.020224 
2293.362224  	99.008341 
2295.291040  	99.012873 
2297.219856  	99.011721 
2299.148672  	99.029491 
2301.077488  	99.010330 
2303.006304  	98.935921 
2304.935120  	98.846955 
2306.863936  	98.833480 
2308.792752  	98.880713 
2310.721568  	98.813207 
2312.650384  	98.750547 
2314.579200  	98.811905 
2316.508016  	98.781794 
2318.436832  	98.680868 
2320.365648  	98.601180 
2322.294464  	98.536603 
2324.223280  	98.553296 
2326.152096  	98.671902 
2328.080912  	98.729594 
2330.009728  	98.743503 
2331.938544  	98.715015 
2333.867360  	98.660646 
2335.796176  	98.591210 
2337.724992  	98.582369 
2339.653808  	98.604948 
2341.582624  	98.628099 
2343.511440  	98.604727 
2345.440256  	98.654841 
2347.369072  	98.645030 
2349.297888  	98.537789 
2351.226704  	98.408185 
2353.155520  	98.383804 
2355.084336  	98.453043 
2357.013152  	98.436262 
2358.941968  	98.406392 
2360.870784  	98.381905 
2362.799600  	98.313351 
2364.728416  	98.348066 
2366.657232  	98.416080 
2368.586048  	98.442720 
2370.514864  	98.497788 
2372.443680  	98.553281 
2374.372496  	98.632318 
2376.301312  	98.697977 
2378.230128  	98.745517 
2380.158944  	98.824258 
2382.087760  	98.904100 
2384.016576  	98.982947 
2385.945392  	99.034869 
2387.874208  	99.059595 
2389.803024  	99.079032 
2391.731840  	99.095225 
2393.660656  	99.107153 
2395.589472  	99.151913 
2397.518288  	99.175630 
2399.447104  	99.156591 
2401.375920  	99.155364 
2403.304736  	99.146419 
2405.233552  	99.128099 
2407.162368  	99.114412 
2409.091184  	99.087550 
2411.020000  	99.068847 
2412.948816  	99.061263 
2414.877632  	99.082190 
2416.806448  	99.073791 
2418.735264  	99.035318 
2420.664080  	98.979705 
2422.592896  	98.950985 
2424.521712  	98.934684 
2426.450528  	98.905983 
2428.379344  	98.914303 
2430.308160  	98.889377 
2432.236976  	98.864259 
2434.165792  	98.853376 
2436.094608  	98.825325 
2438.023424  	98.802442 
2439.952240  	98.756366 
2441.881056  	98.720930 
2443.809872  	98.713344 
2445.738688  	98.704936 
2447.667504  	98.682914 
2449.596320  	98.666607 
2451.525136  	98.667796 
2453.453952  	98.662803 
2455.382768  	98.616805 
2457.311584  	98.576021 
2459.240400  	98.583937 
2461.169216  	98.591488 
2463.098032  	98.588942 
2465.026848  	98.570144 
2466.955664  	98.550590 
2468.884480  	98.579630 
2470.813296  	98.587263 
2472.742112  	98.544398 
2474.670928  	98.530004 
2476.599744  	98.546224 
2478.528560  	98.499703 
2480.457376  	98.460524 
2482.386192  	98.461935 
2484.315008  	98.479122 
2486.243824  	98.473030 
2488.172640  	98.492899 
2490.101456  	98.528831 
2492.030272  	98.521812 
2493.959088  	98.480331 
2495.887904  	98.476409 
2497.816720  	98.467816 
2499.745536  	98.400773 
2501.674352  	98.365763 
2503.603168  	98.365672 
2505.531984  	98.330389 
2507.460800  	98.291556 
2509.389616  	98.274901 
2511.318432  	98.274675 
2513.247248  	98.275154 
2515.176064  	98.270245 
2517.104880  	98.237772 
2519.033696  	98.236616 
2520.962512  	98.224828 
2522.891328  	98.206332 
2524.820144  	98.193719 
2526.748960  	98.175424 
2528.677776  	98.164151 
2530.606592  	98.165600 
2532.535408  	98.167026 
2534.464224  	98.162113 
2536.393040  	98.138736 
2538.321856  	98.104765 
2540.250672  	98.069765 
2542.179488  	98.084846 
2544.108304  	98.102559 
2546.037120  	98.080810 
2547.965936  	98.048551 
2549.894752  	98.041962 
2551.823568  	98.068082 
2553.752384  	98.052373 
2555.681200  	97.988127 
2557.610016  	97.960108 
2559.538832  	97.952392 
2561.467648  	97.941448 
2563.396464  	97.937577 
2565.325280  	97.926079 
2567.254096  	97.879963 
2569.182912  	97.824478 
2571.111728  	97.783816 
2573.040544  	97.799049 
2574.969360  	97.762229 
2576.898176  	97.720049 
2578.826992  	97.716098 
2580.755808  	97.723397 
2582.684624  	97.712713 
2584.613440  	97.668685 
2586.542256  	97.619299 
2588.471072  	97.610719 
2590.399888  	97.582213 
2592.328704  	97.555683 
2594.257520  	97.544996 
2596.186336  	97.557881 
2598.115152  	97.522141 
2600.043968  	97.454793 
2601.972784  	97.423238 
2603.901600  	97.440619 
2605.830416  	97.432777 
2607.759232  	97.383222 
2609.688048  	97.343378 
2611.616864  	97.308665 
2613.545680  	97.270117 
2615.474496  	97.278922 
2617.403312  	97.267788 
2619.332128  	97.225913 
2621.260944  	97.178897 
2623.189760  	97.129325 
2625.118576  	97.087620 
2627.047392  	97.041804 
2628.976208  	97.008258 
2630.905024  	96.988806 
2632.833840  	96.936763 
2634.762656  	96.853608 
2636.691472  	96.813794 
2638.620288  	96.809608 
2640.549104  	96.786358 
2642.477920  	96.756266 
2644.406736  	96.708614 
2646.335552  	96.643024 
2648.264368  	96.594554 
2650.193184  	96.540439 
2652.122000  	96.499025 
2654.050816  	96.468372 
2655.979632  	96.437488 
2657.908448  	96.407702 
2659.837264  	96.373983 
2661.766080  	96.333313 
2663.694896  	96.286836 
2665.623712  	96.256479 
2667.552528  	96.229651 
2669.481344  	96.207840 
2671.410160  	96.168154 
2673.338976  	96.125108 
2675.267792  	96.079475 
2677.196608  	96.053054 
2679.125424  	96.036086 
2681.054240  	96.024668 
2682.983056  	95.997546 
2684.911872  	95.960806 
2686.840688  	95.917688 
2688.769504  	95.903008 
2690.698320  	95.880013 
2692.627136  	95.843345 
2694.555952  	95.795962 
2696.484768  	95.735232 
2698.413584  	95.713630 
2700.342400  	95.685361 
2702.271216  	95.643415 
2704.200032  	95.596554 
2706.128848  	95.578228 
2708.057664  	95.555824 
2709.986480  	95.501390 
2711.915296  	95.452814 
2713.844112  	95.388521 
2715.772928  	95.321222 
2717.701744  	95.271920 
2719.630560  	95.239340 
2721.559376  	95.182492 
2723.488192  	95.125276 
2725.417008  	95.075833 
2727.345824  	95.046686 
2729.274640  	95.024139 
2731.203456  	94.991865 
2733.132272  	94.942294 
2735.061088  	94.879511 
2736.989904  	94.832440 
2738.918720  	94.798944 
2740.847536  	94.758360 
2742.776352  	94.708834 
2744.705168  	94.676974 
2746.633984  	94.618785 
2748.562800  	94.572553 
2750.491616  	94.557790 
2752.420432  	94.548304 
2754.349248  	94.548487 
2756.278064  	94.520235 
2758.206880  	94.472049 
2760.135696  	94.445050 
2762.064512  	94.416998 
2763.993328  	94.356313 
2765.922144  	94.294979 
2767.850960  	94.258280 
2769.779776  	94.231041 
2771.708592  	94.190273 
2773.637408  	94.141366 
2775.566224  	94.099134 
2777.495040  	94.064734 
2779.423856  	94.031152 
2781.352672  	93.982323 
2783.281488  	93.904077 
2785.210304  	93.812774 
2787.139120  	93.743471 
2789.067936  	93.684697 
2790.996752  	93.606719 
2792.925568  	93.537446 
2794.854384  	93.465370 
2796.783200  	93.389466 
2798.712016  	93.304081 
2800.640832  	93.201226 
2802.569648  	93.116584 
2804.498464  	93.025373 
2806.427280  	92.930289 
2808.356096  	92.836775 
2810.284912  	92.728273 
2812.213728  	92.629658 
2814.142544  	92.521619 
2816.071360  	92.411924 
2818.000176  	92.270372 
2819.928992  	92.115925 
2821.857808  	91.985421 
2823.786624  	91.854903 
2825.715440  	91.719250 
2827.644256  	91.589109 
2829.573072  	91.429455 
2831.501888  	91.259821 
2833.430704  	91.086903 
2835.359520  	90.903736 
2837.288336  	90.727008 
2839.217152  	90.534724 
2841.145968  	90.344178 
2843.074784  	90.181340 
2845.003600  	89.974468 
2846.932416  	89.722356 
2848.861232  	89.425871 
2850.790048  	89.043123 
2852.718864  	88.683313 
2854.647680  	88.428677 
2856.576496  	88.285205 
2858.505312  	88.192537 
2860.434128  	88.104670 
2862.362944  	87.979757 
2864.291760  	87.793005 
2866.220576  	87.577781 
2868.149392  	87.321761 
2870.078208  	87.057281 
2872.007024  	86.808496 
2873.935840  	86.559371 
2875.864656  	86.310500 
2877.793472  	86.063956 
2879.722288  	85.850078 
2881.651104  	85.646270 
2883.579920  	85.449256 
2885.508736  	85.304983 
2887.437552  	85.186017 
2889.366368  	85.110333 
2891.295184  	85.050504 
2893.224000  	84.992428 
2895.152816  	84.974328 
2897.081632  	84.956296 
2899.010448  	84.935131 
2900.939264  	84.912871 
2902.868080  	84.869585 
2904.796896  	84.814623 
2906.725712  	84.725214 
2908.654528  	84.605943 
2910.583344  	84.478394 
2912.512160  	84.347362 
2914.440976  	84.138268 
2916.369792  	83.778586 
2918.298608  	83.278182 
2920.227424  	82.744490 
2922.156240  	82.266466 
2924.085056  	81.903059 
2926.013872  	81.721148 
2927.942688  	81.679937 
2929.871504  	81.756802 
2931.800320  	81.935921 
2933.729136  	82.218191 
2935.657952  	82.555845 
2937.586768  	82.932850 
2939.515584  	83.318012 
2941.444400  	83.692990 
2943.373216  	84.092924 
2945.302032  	84.493572 
2947.230848  	84.882251 
2949.159664  	85.258274 
2951.088480  	85.614430 
2953.017296  	85.969849 
2954.946112  	86.348990 
2956.874928  	86.716629 
2958.803744  	87.064711 
2960.732560  	87.385863 
2962.661376  	87.699474 
2964.590192  	87.999662 
2966.519008  	88.313453 
2968.447824  	88.640457 
2970.376640  	88.929839 
2972.305456  	89.167802 
2974.234272  	89.407584 
2976.163088  	89.645545 
2978.091904  	89.850947 
2980.020720  	90.017874 
2981.949536  	90.170676 
2983.878352  	90.309664 
2985.807168  	90.425761 
2987.735984  	90.548182 
2989.664800  	90.649814 
2991.593616  	90.685181 
2993.522432  	90.728234 
2995.451248  	90.758256 
2997.380064  	90.739024 
2999.308880  	90.691582 
3001.237696  	90.615471 
3003.166512  	90.562611 
3005.095328  	90.504279 
3007.024144  	90.430940 
3008.952960  	90.341026 
3010.881776  	90.248621 
3012.810592  	90.169336 
3014.739408  	90.049686 
3016.668224  	89.916850 
3018.597040  	89.796033 
3020.525856  	89.662786 
3022.454672  	89.514395 
3024.383488  	89.382503 
3026.312304  	89.227207 
3028.241120  	89.056387 
3030.169936  	88.890005 
3032.098752  	88.737076 
3034.027568  	88.579613 
3035.956384  	88.420641 
3037.885200  	88.255534 
3039.814016  	88.064304 
3041.742832  	87.870133 
3043.671648  	87.675202 
3045.600464  	87.489307 
3047.529280  	87.268166 
3049.458096  	87.078194 
3051.386912  	86.889133 
3053.315728  	86.678694 
3055.244544  	86.471365 
3057.173360  	86.271145 
3059.102176  	86.062409 
3061.030992  	85.832817 
3062.959808  	85.570679 
3064.888624  	85.323995 
3066.817440  	85.133384 
3068.746256  	84.954848 
3070.675072  	84.738773 
3072.603888  	84.504563 
3074.532704  	84.259020 
3076.461520  	84.012871 
3078.390336  	83.772297 
3080.319152  	83.521673 
3082.247968  	83.283620 
3084.176784  	83.053530 
3086.105600  	82.782778 
3088.034416  	82.538806 
3089.963232  	82.300797 
3091.892048  	81.993038 
3093.820864  	81.689513 
3095.749680  	81.454989 
3097.678496  	81.224384 
3099.607312  	80.951299 
3101.536128  	80.671934 
3103.464944  	80.414593 
3105.393760  	80.147497 
3107.322576  	79.912242 
3109.251392  	79.664661 
3111.180208  	79.395655 
3113.109024  	79.102054 
3115.037840  	78.869124 
3116.966656  	78.613562 
3118.895472  	78.300326 
3120.824288  	77.979677 
3122.753104  	77.668293 
3124.681920  	77.394085 
3126.610736  	77.143592 
3128.539552  	76.839386 
3130.468368  	76.531310 
3132.397184  	76.244022 
3134.326000  	76.013981 
3136.254816  	75.765277 
3138.183632  	75.459445 
3140.112448  	75.165915 
3142.041264  	74.879772 
3143.970080  	74.572301 
3145.898896  	74.307347 
3147.827712  	74.053451 
3149.756528  	73.786581 
3151.685344  	73.479830 
3153.614160  	73.161841 
3155.542976  	72.864792 
3157.471792  	72.576699 
3159.400608  	72.287408 
3161.329424  	72.028361 
3163.258240  	71.741700 
3165.187056  	71.491396 
3167.115872  	71.231821 
3169.044688  	70.940890 
3170.973504  	70.646975 
3172.902320  	70.370047 
3174.831136  	70.112112 
3176.759952  	69.875177 
3178.688768  	69.612358 
3180.617584  	69.365968 
3182.546400  	69.100497 
3184.475216  	68.844812 
3186.404032  	68.625163 
3188.332848  	68.394542 
3190.261664  	68.144232 
3192.190480  	67.894730 
3194.119296  	67.651259 
3196.048112  	67.430200 
3197.976928  	67.209251 
3199.905744  	67.001948 
3201.834560  	66.781353 
3203.763376  	66.569537 
3205.692192  	66.346910 
3207.621008  	66.139376 
3209.549824  	65.929019 
3211.478640  	65.727922 
3213.407456  	65.532309 
3215.336272  	65.377487 
3217.265088  	65.204510 
3219.193904  	65.046676 
3221.122720  	64.879130 
3223.051536  	64.681449 
3224.980352  	64.517233 
3226.909168  	64.394117 
3228.837984  	64.271702 
3230.766800  	64.185054 
3232.695616  	64.055981 
3234.624432  	63.866688 
3236.553248  	63.696566 
3238.482064  	63.574573 
3240.410880  	63.435964 
3242.339696  	63.354873 
3244.268512  	63.296043 
3246.197328  	63.195803 
3248.126144  	63.086961 
3250.054960  	62.974323 
3251.983776  	62.866970 
3253.912592  	62.808724 
3255.841408  	62.738838 
3257.770224  	62.658060 
3259.699040  	62.570530 
3261.627856  	62.519553 
3263.556672  	62.465946 
3265.485488  	62.446881 
3267.414304  	62.437656 
3269.343120  	62.420114 
3271.271936  	62.345625 
3273.200752  	62.297483 
3275.129568  	62.244437 
3277.058384  	62.201610 
3278.987200  	62.179489 
3280.916016  	62.152003 
3282.844832  	62.118326 
3284.773648  	62.075317 
3286.702464  	62.082831 
3288.631280  	62.118691 
3290.560096  	62.145517 
3292.488912  	62.184337 
3294.417728  	62.155703 
3296.346544  	62.088677 
3298.275360  	62.086868 
3300.204176  	62.142407 
3302.132992  	62.206992 
3304.061808  	62.272785 
3305.990624  	62.268365 
3307.919440  	62.232635 
3309.848256  	62.206452 
3311.777072  	62.210380 
3313.705888  	62.244148 
3315.634704  	62.294505 
3317.563520  	62.321032 
3319.492336  	62.367934 
3321.421152  	62.429529 
3323.349968  	62.472832 
3325.278784  	62.516602 
3327.207600  	62.585145 
3329.136416  	62.620561 
3331.065232  	62.683542 
3332.994048  	62.782564 
3334.922864  	62.907442 
3336.851680  	62.998727 
3338.780496  	63.066760 
3340.709312  	63.142297 
3342.638128  	63.236038 
3344.566944  	63.342415 
3346.495760  	63.442892 
3348.424576  	63.553058 
3350.353392  	63.648731 
3352.282208  	63.684570 
3354.211024  	63.763665 
3356.139840  	63.898802 
3358.068656  	63.992189 
3359.997472  	64.108960 
3361.926288  	64.246184 
3363.855104  	64.399779 
3365.783920  	64.602615 
3367.712736  	64.752370 
3369.641552  	64.840391 
3371.570368  	64.958298 
3373.499184  	65.100399 
3375.428000  	65.242519 
3377.356816  	65.378325 
3379.285632  	65.537304 
3381.214448  	65.723542 
3383.143264  	65.879514 
3385.072080  	66.075576 
3387.000896  	66.264823 
3388.929712  	66.454231 
3390.858528  	66.637425 
3392.787344  	66.841196 
3394.716160  	67.034697 
3396.644976  	67.270111 
3398.573792  	67.505233 
3400.502608  	67.664815 
3402.431424  	67.834027 
3404.360240  	68.013496 
3406.289056  	68.224466 
3408.217872  	68.491963 
3410.146688  	68.737260 
3412.075504  	68.938043 
3414.004320  	69.107316 
3415.933136  	69.283096 
3417.861952  	69.489849 
3419.790768  	69.745755 
3421.719584  	70.039043 
3423.648400  	70.331738 
3425.577216  	70.588658 
3427.506032  	70.834168 
3429.434848  	71.060360 
3431.363664  	71.294207 
3433.292480  	71.548415 
3435.221296  	71.750470 
3437.150112  	71.946761 
3439.078928  	72.146256 
3441.007744  	72.343914 
3442.936560  	72.574796 
3444.865376  	72.836103 
3446.794192  	73.132129 
3448.723008  	73.419194 
3450.651824  	73.642200 
3452.580640  	73.890313 
3454.509456  	74.149935 
3456.438272  	74.382133 
3458.367088  	74.647065 
3460.295904  	74.921673 
3462.224720  	75.151129 
3464.153536  	75.386891 
3466.082352  	75.657317 
3468.011168  	75.937757 
3469.939984  	76.187931 
3471.868800  	76.413743 
3473.797616  	76.675108 
3475.726432  	76.925481 
3477.655248  	77.129383 
3479.584064  	77.345463 
3481.512880  	77.641445 
3483.441696  	77.967681 
3485.370512  	78.213668 
3487.299328  	78.475928 
3489.228144  	78.735229 
3491.156960  	78.979644 
3493.085776  	79.232121 
3495.014592  	79.495703 
3496.943408  	79.781145 
3498.872224  	80.008828 
3500.801040  	80.161128 
3502.729856  	80.426347 
3504.658672  	80.793959 
3506.587488  	81.076160 
3508.516304  	81.327939 
3510.445120  	81.651614 
3512.373936  	81.952306 
3514.302752  	82.208592 
3516.231568  	82.489140 
3518.160384  	82.723610 
3520.089200  	82.891418 
3522.018016  	83.087184 
3523.946832  	83.379768 
3525.875648  	83.671924 
3527.804464  	84.000284 
3529.733280  	84.351565 
3531.662096  	84.604884 
3533.590912  	84.857348 
3535.519728  	85.142462 
3537.448544  	85.438785 
3539.377360  	85.703901 
3541.306176  	85.924943 
3543.234992  	86.110656 
3545.163808  	86.416535 
3547.092624  	86.784224 
3549.021440  	87.072757 
3550.950256  	87.329030 
3552.879072  	87.645253 
3554.807888  	87.950798 
3556.736704  	88.236924 
3558.665520  	88.447992 
3560.594336  	88.595159 
3562.523152  	88.718569 
3564.451968  	88.832691 
3566.380784  	89.187522 
3568.309600  	89.787708 
3570.238416  	90.108182 
3572.167232  	90.364824 
3574.096048  	90.643716 
3576.024864  	90.943041 
3577.953680  	91.154864 
3579.882496  	91.358153 
3581.811312  	91.533698 
3583.740128  	91.656620 
3585.668944  	91.780926 
3587.597760  	92.138233 
3589.526576  	92.508861 
3591.455392  	92.644454 
3593.384208  	92.789589 
3595.313024  	93.082680 
3597.241840  	93.362442 
3599.170656  	93.591532 
3601.099472  	93.839148 
3603.028288  	94.074747 
3604.957104  	94.147830 
3606.885920  	94.207683 
3608.814736  	94.464459 
3610.743552  	94.659435 
3612.672368  	94.784256 
3614.601184  	94.981694 
3616.530000  	95.057012 
3618.458816  	95.339440 
3620.387632  	95.737786 
3622.316448  	95.925779 
3624.245264  	95.957506 
3626.174080  	95.920665 
3628.102896  	96.017027 
3630.031712  	96.519801 
3631.960528  	96.773290 
3633.889344  	96.959288 
3635.818160  	97.139711 
3637.746976  	97.267307 
3639.675792  	97.437138 
3641.604608  	97.554890 
3643.533424  	97.492225 
3645.462240  	97.294141 
3647.391056  	97.269351 
3649.319872  	97.651713 
3651.248688  	98.019836 
3653.177504  	98.247859 
3655.106320  	98.371062 
3657.035136  	98.626134 
3658.963952  	98.796617 
3660.892768  	98.872548 
3662.821584  	98.947841 
3664.750400  	98.969151 
3666.679216  	98.824785 
3668.608032  	98.665147 
3670.536848  	98.745892 
3672.465664  	98.852790 
3674.394480  	98.837886 
3676.323296  	99.141008 
3678.252112  	99.383478 
3680.180928  	99.564995 
3682.109744  	99.600259 
3684.038560  	99.559305 
3685.967376  	99.452333 
3687.896192  	99.422804 
3689.825008  	99.511906 
3691.753824  	99.735773 
3693.682640  	99.921096 
3695.611456  	99.927842 
3697.540272  	99.945026 
3699.469088  	99.884780 
3701.397904  	99.868385 
3703.326720  	100.013229 
3705.255536  	99.998754 
3707.184352  	99.796737 
3709.113168  	99.643457 
3711.041984  	99.701894 
3712.970800  	99.908808 
3714.899616  	100.057274 
3716.828432  	100.046381 
3718.757248  	99.926519 
3720.686064  	99.795202 
3722.614880  	99.826061 
3724.543696  	99.876708 
3726.472512  	99.869050 
3728.401328  	99.938866 
3730.330144  	99.838249 
3732.258960  	99.578071 
3734.187776  	99.452462 
3736.116592  	99.587838 
3738.045408  	99.805301 
3739.974224  	99.820326 
3741.903040  	99.714611 
3743.831856  	99.644397 
3745.760672  	99.652684 
3747.689488  	99.515019 
3749.618304  	99.462779 
3751.547120  	99.595749 
3753.475936  	99.886934 
3755.404752  	100.008803 
3757.333568  	100.024274 
3759.262384  	100.096112 
3761.191200  	100.231778 
3763.120016  	100.196339 
3765.048832  	100.162072 
3766.977648  	100.235350 
3768.906464  	100.250602 
3770.835280  	100.350361 
3772.764096  	100.464991 
3774.692912  	100.421945 
3776.621728  	100.318696 
3778.550544  	100.266040 
3780.479360  	100.349851 
3782.408176  	100.384939 
3784.336992  	100.411149 
3786.265808  	100.478634 
3788.194624  	100.530571 
3790.123440  	100.544108 
3792.052256  	100.500210 
3793.981072  	100.360230 
3795.909888  	100.188307 
3797.838704  	100.102927 
3799.767520  	99.987525 
3801.696336  	100.058045 
3803.625152  	100.200055 
3805.553968  	100.216142 
3807.482784  	100.352147 
3809.411600  	100.462886 
3811.340416  	100.403389 
3813.269232  	100.223846 
3815.198048  	100.068149 
3817.126864  	100.036345 
3819.055680  	99.940045 
3820.984496  	99.987398 
3822.913312  	100.210270 
3824.842128  	100.235889 
3826.770944  	100.255216 
3828.699760  	100.279928 
3830.628576  	100.221169 
3832.557392  	100.090404 
3834.486208  	100.010361 
3836.415024  	99.914156 
3838.343840  	99.927232 
3840.272656  	100.158115 
3842.201472  	100.349845 
3844.130288  	100.402437 
3846.059104  	100.441121 
3847.987920  	100.340534 
3849.916736  	100.069403 
3851.845552  	99.845384 
3853.774368  	100.188252 
3855.703184  	100.380335 
3857.632000  	100.373698 
3859.560816  	100.320144 
3861.489632  	100.161457 
3863.418448  	100.119350 
3865.347264  	100.204086 
3867.276080  	100.241117 
3869.204896  	100.203172 
3871.133712  	100.190131 
3873.062528  	100.172026 
3874.991344  	100.298238 
3876.920160  	100.379173 
3878.848976  	100.310166 
3880.777792  	100.201224 
3882.706608  	100.187783 
3884.635424  	100.207791 
3886.564240  	100.332052 
3888.493056  	100.318609 
3890.421872  	100.162658 
3892.350688  	100.230864 
3894.279504  	100.345435 
3896.208320  	100.246994 
3898.137136  	100.089012 
3900.065952  	100.063181 
3901.994768  	100.005519 
3903.923584  	100.095770 
3905.852400  	100.343674 
3907.781216  	100.526809 
3909.710032  	100.568744 
3911.638848  	100.521341 
3913.567664  	100.425197 
3915.496480  	100.356343 
3917.425296  	100.342251 
3919.354112  	100.366630 
3921.282928  	100.361433 
3923.211744  	100.335169 
3925.140560  	100.404873 
3927.069376  	100.452987 
3928.998192  	100.361145 
3930.927008  	100.316160 
3932.855824  	100.368618 
3934.784640  	100.462843 
3936.713456  	100.449863 
3938.642272  	100.409205 
3940.571088  	100.372589 
3942.499904  	100.321959 
3944.428720  	100.348872 
3946.357536  	100.365479 
3948.286352  	100.365683 
3950.215168  	100.399916 
3952.143984  	100.425478 
3954.072800  	100.487629 
3956.001616  	100.465155 
3957.930432  	100.440487 
3959.859248  	100.421101 
3961.788064  	100.437358 
3963.716880  	100.434939 
3965.645696  	100.401197 
3967.574512  	100.378790 
3969.503328  	100.389450 
3971.432144  	100.389538 
3973.360960  	100.352968 
3975.289776  	100.352198 
3977.218592  	100.346347 
3979.147408  	100.361952 
3981.076224  	100.447614 
3983.005040  	100.502228 
3984.933856  	100.499740 
3986.862672  	100.459035 
3988.791488  	100.446181 
3990.720304  	100.482507 
3992.649120  	100.533119 
3994.577936  	100.529278 
3996.506752  	100.533739 
3998.435568  	100.515228 
4000.364384  	100.514893 